Date,Open,High,Low,Close,Adj Close,Volume
2017-01-02,34.650001525878906,36.20000076293945,34.650001525878906,35.29999923706055,35.29999923706055,133394
2017-01-03,35.75,35.849998474121094,34.599998474121094,35.150001525878906,35.150001525878906,118761
2017-01-04,35.20000076293945,37.70000076293945,35.150001525878906,37.349998474121094,37.349998474121094,429340
2017-01-05,37.099998474121094,39.400001525878906,37.04999923706055,38.70000076293945,38.70000076293945,504048
2017-01-06,38.70000076293945,39.099998474121094,37.5,37.79999923706055,37.79999923706055,131052
2017-01-09,37.900001525878906,38.650001525878906,36.5,37.900001525878906,37.900001525878906,58100
2017-01-10,38.79999923706055,38.79999923706055,37.45000076293945,37.95000076293945,37.95000076293945,62187
2017-01-11,38.099998474121094,41.0,38.099998474121094,39.95000076293945,39.95000076293945,521142
2017-01-12,39.599998474121094,40.400001525878906,38.20000076293945,38.400001525878906,38.400001525878906,88258
2017-01-13,38.099998474121094,38.599998474121094,38.04999923706055,38.25,38.25,39624
2017-01-16,40.0,40.0,38.349998474121094,38.5,38.5,31032
2017-01-17,38.54999923706055,39.0,37.400001525878906,37.849998474121094,37.849998474121094,57753
2017-01-18,37.599998474121094,40.349998474121094,37.099998474121094,38.45000076293945,38.45000076293945,214678
2017-01-19,39.25,39.29999923706055,37.70000076293945,38.29999923706055,38.29999923706055,91960
2017-01-20,38.099998474121094,38.5,37.29999923706055,37.45000076293945,37.45000076293945,54924
2017-01-23,37.400001525878906,38.45000076293945,36.70000076293945,37.599998474121094,37.599998474121094,28527
2017-01-24,38.0,38.0,37.0,37.20000076293945,37.20000076293945,37219
2017-01-25,36.900001525878906,37.70000076293945,35.29999923706055,36.75,36.75,210826
2017-01-27,36.5,37.25,35.75,36.04999923706055,36.04999923706055,64261
2017-01-30,35.5,36.400001525878906,31.700000762939453,32.29999923706055,32.29999923706055,359371
2017-01-31,32.70000076293945,34.79999923706055,32.349998474121094,33.0,33.0,114120
2017-02-01,32.5,33.900001525878906,32.099998474121094,32.95000076293945,32.95000076293945,74176
2017-02-02,33.0,34.20000076293945,32.79999923706055,33.5,33.5,49581
2017-02-03,33.29999923706055,34.0,32.29999923706055,33.75,33.75,48751
2017-02-06,34.25,35.900001525878906,33.75,34.70000076293945,34.70000076293945,132671
2017-02-07,36.5,36.5,34.5,34.599998474121094,34.599998474121094,45924
2017-02-08,34.599998474121094,35.349998474121094,34.25,34.349998474121094,34.349998474121094,33670
2017-02-09,34.5,37.20000076293945,34.25,36.0,36.0,330219
2017-02-10,37.0,37.5,35.400001525878906,36.04999923706055,36.04999923706055,121000
2017-02-13,36.0,36.79999923706055,35.349998474121094,35.599998474121094,35.599998474121094,32118
2017-02-14,35.650001525878906,36.20000076293945,35.150001525878906,35.29999923706055,35.29999923706055,22880
2017-02-15,35.0,35.0,33.70000076293945,33.849998474121094,33.849998474121094,42469
2017-02-16,34.5,34.5,33.400001525878906,33.79999923706055,33.79999923706055,31395
2017-02-17,34.099998474121094,34.099998474121094,33.29999923706055,33.70000076293945,33.70000076293945,19415
2017-02-20,33.5,34.5,33.099998474121094,33.849998474121094,33.849998474121094,38342
2017-02-21,34.0,34.79999923706055,33.5,33.599998474121094,33.599998474121094,32112
2017-02-22,34.0,34.0,32.099998474121094,32.54999923706055,32.54999923706055,42701
2017-02-23,32.900001525878906,33.5,31.600000381469727,31.899999618530273,31.899999618530273,48206
2017-02-27,31.950000762939453,32.5,31.75,32.04999923706055,32.04999923706055,41218
2017-02-28,32.0,32.45000076293945,31.799999237060547,32.20000076293945,32.20000076293945,20527
2017-03-01,32.0,33.5,31.899999618530273,32.95000076293945,32.95000076293945,42886
2017-03-02,32.70000076293945,34.849998474121094,32.25,33.54999923706055,33.54999923706055,282174
2017-03-03,33.95000076293945,34.20000076293945,32.599998474121094,33.650001525878906,33.650001525878906,48641
2017-03-06,33.20000076293945,33.5,32.25,32.45000076293945,32.45000076293945,70065
2017-03-07,32.20000076293945,32.900001525878906,32.0,32.29999923706055,32.29999923706055,28368
2017-03-08,32.099998474121094,32.5,31.649999618530273,31.700000762939453,31.700000762939453,20610
2017-03-09,31.549999237060547,31.950000762939453,30.75,31.100000381469727,31.100000381469727,111195
2017-03-10,30.649999618530273,31.850000381469727,30.649999618530273,31.299999237060547,31.299999237060547,25269
2017-03-14,32.45000076293945,32.45000076293945,31.0,31.399999618530273,31.399999618530273,69497
2017-03-15,31.350000381469727,32.400001525878906,31.350000381469727,31.899999618530273,31.899999618530273,37445
2017-03-16,32.04999923706055,32.79999923706055,31.850000381469727,32.0,32.0,42807
2017-03-17,32.0,32.599998474121094,31.850000381469727,31.899999618530273,31.899999618530273,29016
2017-03-20,32.900001525878906,32.900001525878906,31.700000762939453,32.0,32.0,9432
2017-03-21,31.850000381469727,32.29999923706055,31.799999237060547,32.04999923706055,32.04999923706055,54836
2017-03-22,31.700000762939453,32.5,31.25,31.299999237060547,31.299999237060547,21092
2017-03-23,31.200000762939453,32.900001525878906,31.049999237060547,32.349998474121094,32.349998474121094,60328
2017-03-24,32.0,34.400001525878906,32.0,32.79999923706055,32.79999923706055,90614
2017-03-27,33.25,34.0,32.400001525878906,32.599998474121094,32.599998474121094,65253
2017-03-28,32.54999923706055,34.0,32.150001525878906,32.349998474121094,32.349998474121094,36787
2017-03-29,32.5,33.0,31.5,31.75,31.75,86414
2017-03-30,32.29999923706055,33.400001525878906,32.29999923706055,33.29999923706055,33.29999923706055,59919
2017-03-31,33.70000076293945,33.900001525878906,31.899999618530273,32.849998474121094,32.849998474121094,107805
2017-04-03,32.849998474121094,33.25,32.75,32.849998474121094,32.849998474121094,56778
2017-04-05,32.70000076293945,34.0,32.29999923706055,32.599998474121094,32.599998474121094,95408
2017-04-06,32.599998474121094,33.29999923706055,32.599998474121094,33.0,33.0,41491
2017-04-07,33.45000076293945,33.45000076293945,31.0,31.549999237060547,31.549999237060547,117998
2017-04-10,31.899999618530273,32.599998474121094,31.850000381469727,32.25,32.25,84074
2017-04-11,32.25,32.70000076293945,31.950000762939453,32.25,32.25,29988
2017-04-12,32.29999923706055,33.0,31.0,31.600000381469727,31.600000381469727,92493
2017-04-13,31.600000381469727,32.0,31.200000762939453,31.299999237060547,31.299999237060547,75729
2017-04-17,31.25,31.950000762939453,30.700000762939453,30.799999237060547,30.799999237060547,112335
2017-04-18,31.0,31.350000381469727,29.799999237060547,30.0,30.0,105737
2017-04-19,30.0,30.100000381469727,29.700000762939453,29.950000762939453,29.950000762939453,55994
2017-04-20,30.0,30.399999618530273,29.75,30.0,30.0,131865
2017-04-21,30.5,31.299999237060547,30.299999237060547,30.649999618530273,30.649999618530273,61985
2017-04-24,30.5,31.399999618530273,29.75,29.950000762939453,29.950000762939453,126121
2017-04-25,29.799999237060547,30.0,28.100000381469727,28.700000762939453,28.700000762939453,247725
2017-04-26,28.700000762939453,30.0,28.5,28.950000762939453,28.950000762939453,128261
2017-04-27,29.0,29.399999618530273,28.649999618530273,29.0,29.0,38237
2017-04-28,29.399999618530273,29.399999618530273,28.549999237060547,29.0,29.0,33101
2017-05-02,29.450000762939453,30.5,28.600000381469727,29.200000762939453,29.200000762939453,108518
2017-05-03,29.100000381469727,29.25,28.799999237060547,28.950000762939453,28.950000762939453,18089
2017-05-04,28.649999618530273,29.649999618530273,28.649999618530273,29.149999618530273,29.149999618530273,39573
2017-05-05,28.899999618530273,29.350000381469727,28.649999618530273,28.899999618530273,28.899999618530273,32220
2017-05-08,28.75,30.799999237060547,28.700000762939453,29.149999618530273,29.149999618530273,157630
2017-05-09,29.149999618530273,29.600000381469727,29.0,29.399999618530273,29.399999618530273,28023
2017-05-10,29.399999618530273,33.5,29.100000381469727,30.700000762939453,30.700000762939453,461218
2017-05-11,31.0,32.400001525878906,31.0,31.200000762939453,31.200000762939453,251883
2017-05-12,31.350000381469727,31.600000381469727,30.5,31.149999618530273,31.149999618530273,52688
2017-05-15,31.149999618530273,31.899999618530273,29.700000762939453,29.950000762939453,29.950000762939453,56623
2017-05-16,30.0,30.399999618530273,29.5,29.75,29.75,33885
2017-05-17,29.100000381469727,30.149999618530273,29.100000381469727,29.600000381469727,29.600000381469727,50569
2017-05-18,29.350000381469727,30.450000762939453,29.049999237060547,29.149999618530273,29.149999618530273,34463
2017-05-19,29.25,29.899999618530273,28.700000762939453,28.899999618530273,28.899999618530273,32480
2017-05-22,29.0,29.450000762939453,28.25,28.649999618530273,28.649999618530273,20624
2017-05-23,29.0,29.0,27.100000381469727,28.049999237060547,28.049999237060547,52037
2017-05-24,28.049999237060547,28.549999237060547,26.799999237060547,27.350000381469727,27.350000381469727,63868
2017-05-25,27.049999237060547,28.549999237060547,27.0,28.399999618530273,28.399999618530273,23243
2017-05-26,28.5,29.75,28.200000762939453,28.75,28.75,58611
2017-05-29,28.649999618530273,29.299999237060547,28.649999618530273,28.950000762939453,28.950000762939453,24207
2017-05-30,27.399999618530273,28.649999618530273,27.100000381469727,27.600000381469727,27.600000381469727,28570
2017-05-31,27.5,28.25,27.5,27.850000381469727,27.850000381469727,13739
2017-06-01,28.0,28.100000381469727,27.149999618530273,27.25,27.25,30038
2017-06-02,27.549999237060547,27.850000381469727,27.25,27.450000762939453,27.450000762939453,17591
2017-06-05,27.5,28.200000762939453,27.5,27.600000381469727,27.600000381469727,20677
2017-06-06,27.600000381469727,27.700000762939453,27.25,27.299999237060547,27.299999237060547,13478
2017-06-07,27.25,27.75,27.0,27.100000381469727,27.100000381469727,19473
2017-06-08,27.100000381469727,27.5,26.100000381469727,26.299999237060547,26.299999237060547,41556
2017-06-09,26.100000381469727,28.649999618530273,26.100000381469727,26.950000762939453,26.950000762939453,45742
2017-06-12,27.0,27.149999618530273,26.399999618530273,26.950000762939453,26.950000762939453,18706
2017-06-13,27.0,28.600000381469727,26.600000381469727,27.950000762939453,27.950000762939453,142287
2017-06-14,27.700000762939453,28.100000381469727,27.0,27.100000381469727,27.100000381469727,30890
2017-06-15,27.100000381469727,27.299999237060547,26.549999237060547,26.899999618530273,26.899999618530273,17885
2017-06-16,26.799999237060547,27.100000381469727,26.5,26.75,26.75,31957
2017-06-19,26.75,27.200000762939453,26.75,26.850000381469727,26.850000381469727,15458
2017-06-20,27.149999618530273,27.149999618530273,26.549999237060547,26.700000762939453,26.700000762939453,24330
2017-06-21,26.649999618530273,26.75,26.5,26.549999237060547,26.549999237060547,9485
2017-06-22,26.649999618530273,27.149999618530273,26.450000762939453,26.5,26.5,62694
2017-06-23,26.5,26.899999618530273,25.5,25.950000762939453,25.950000762939453,27803
2017-06-27,26.850000381469727,26.850000381469727,24.850000381469727,25.0,25.0,37173
2017-06-28,24.799999237060547,25.799999237060547,24.25,24.450000762939453,24.450000762939453,40660
2017-06-29,24.5,24.899999618530273,23.75,24.549999237060547,24.549999237060547,45965
2017-06-30,24.25,25.100000381469727,23.950000762939453,24.100000381469727,24.100000381469727,44551
2017-07-03,24.149999618530273,24.700000762939453,24.149999618530273,24.350000381469727,24.350000381469727,8615
2017-07-04,24.299999237060547,24.950000762939453,24.149999618530273,24.649999618530273,24.649999618530273,14596
2017-07-05,24.700000762939453,25.649999618530273,24.700000762939453,25.149999618530273,25.149999618530273,16122
2017-07-06,25.950000762939453,25.950000762939453,24.600000381469727,25.149999618530273,25.149999618530273,17717
2017-07-07,25.049999237060547,25.700000762939453,24.600000381469727,25.25,25.25,34453
2017-07-10,24.799999237060547,25.75,24.799999237060547,25.100000381469727,25.100000381469727,8351
2017-07-11,24.850000381469727,25.75,24.100000381469727,24.600000381469727,24.600000381469727,13895
2017-07-12,24.600000381469727,25.149999618530273,24.5,24.600000381469727,24.600000381469727,14308
2017-07-13,24.600000381469727,25.0,24.5,24.549999237060547,24.549999237060547,37474
2017-07-14,24.5,25.149999618530273,24.5,24.950000762939453,24.950000762939453,17637
2017-07-17,25.0,25.75,24.799999237060547,25.600000381469727,25.600000381469727,39145
2017-07-18,25.350000381469727,25.600000381469727,24.5,24.850000381469727,24.850000381469727,41632
2017-07-19,24.75,25.100000381469727,24.25,24.399999618530273,24.399999618530273,18944
2017-07-20,24.700000762939453,25.149999618530273,24.450000762939453,24.899999618530273,24.899999618530273,26055
2017-07-21,24.799999237060547,25.0,24.0,24.75,24.75,16730
2017-07-24,24.75,25.200000762939453,24.75,24.799999237060547,24.799999237060547,24326
2017-07-25,25.5,25.5,24.299999237060547,24.799999237060547,24.799999237060547,51248
2017-07-26,24.649999618530273,25.0,24.450000762939453,24.549999237060547,24.549999237060547,38857
2017-07-27,24.549999237060547,24.600000381469727,23.450000762939453,23.700000762939453,23.700000762939453,133535
2017-07-28,24.0,24.450000762939453,23.0,23.200000762939453,23.200000762939453,108888
2017-07-31,23.200000762939453,23.700000762939453,22.950000762939453,23.0,23.0,38992
2017-08-01,23.049999237060547,23.799999237060547,22.899999618530273,23.399999618530273,23.399999618530273,90572
2017-08-02,23.100000381469727,23.450000762939453,22.799999237060547,23.049999237060547,23.049999237060547,19506
2017-08-03,23.0,23.299999237060547,22.100000381469727,22.399999618530273,22.399999618530273,37729
2017-08-04,22.299999237060547,22.5,22.0,22.049999237060547,22.049999237060547,44240
2017-08-07,22.049999237060547,22.700000762939453,21.799999237060547,21.950000762939453,21.950000762939453,43376
2017-08-08,21.950000762939453,21.950000762939453,20.75,21.0,21.0,33294
2017-08-09,22.5,22.5,20.200000762939453,20.5,20.5,42243
2017-08-10,20.299999237060547,20.450000762939453,19.5,19.600000381469727,19.600000381469727,42944
2017-08-11,19.100000381469727,20.549999237060547,18.149999618530273,19.899999618530273,19.899999618530273,33962
2017-08-14,20.100000381469727,23.850000381469727,19.549999237060547,23.649999618530273,23.649999618530273,100864
2017-08-16,23.950000762939453,27.5,22.149999618530273,27.149999618530273,27.149999618530273,356832
2017-08-17,26.5,29.700000762939453,26.5,27.899999618530273,27.899999618530273,250449
2017-08-18,27.450000762939453,28.450000762939453,26.5,27.549999237060547,27.549999237060547,95723
2017-08-21,28.399999618530273,28.399999618530273,26.25,26.649999618530273,26.649999618530273,54707
2017-08-22,27.899999618530273,27.899999618530273,24.0,24.25,24.25,73437
2017-08-23,24.700000762939453,24.899999618530273,23.100000381469727,23.850000381469727,23.850000381469727,45431
2017-08-24,23.850000381469727,24.450000762939453,23.200000762939453,23.850000381469727,23.850000381469727,22450
2017-08-28,23.899999618530273,24.600000381469727,23.0,23.549999237060547,23.549999237060547,23522
2017-08-29,24.25,24.25,23.149999618530273,23.450000762939453,23.450000762939453,3747
2017-08-30,23.549999237060547,23.549999237060547,23.100000381469727,23.200000762939453,23.200000762939453,8367
2017-08-31,23.899999618530273,23.899999618530273,22.75,22.850000381469727,22.850000381469727,25651
2017-09-01,23.0,23.75,23.0,23.549999237060547,23.549999237060547,13335
2017-09-04,24.75,24.75,23.100000381469727,24.450000762939453,24.450000762939453,20073
2017-09-05,24.450000762939453,25.600000381469727,24.450000762939453,24.5,24.5,17724
2017-09-06,24.450000762939453,24.5,23.75,23.950000762939453,23.950000762939453,17330
2017-09-07,24.049999237060547,24.350000381469727,23.799999237060547,23.799999237060547,23.799999237060547,4010
2017-09-08,24.799999237060547,24.799999237060547,23.700000762939453,24.0,24.0,3903
2017-09-11,23.899999618530273,24.399999618530273,23.399999618530273,23.700000762939453,23.700000762939453,10549
2017-09-12,23.700000762939453,24.450000762939453,23.549999237060547,23.700000762939453,23.700000762939453,10781
2017-09-13,23.549999237060547,24.350000381469727,23.5,23.649999618530273,23.649999618530273,25948
2017-09-14,24.0,24.799999237060547,23.700000762939453,23.799999237060547,23.799999237060547,24222
2017-09-15,23.5,24.899999618530273,23.0,24.600000381469727,24.600000381469727,44963
2017-09-18,24.600000381469727,25.5,24.200000762939453,24.399999618530273,24.399999618530273,12966
2017-09-19,23.700000762939453,28.5,23.649999618530273,26.850000381469727,26.850000381469727,382630
2017-09-20,27.299999237060547,27.799999237060547,25.200000762939453,26.549999237060547,26.549999237060547,172898
2017-09-21,26.5,26.5,25.399999618530273,25.600000381469727,25.600000381469727,25898
2017-09-22,25.399999618530273,25.700000762939453,23.549999237060547,24.100000381469727,24.100000381469727,71481
2017-09-25,23.600000381469727,24.600000381469727,23.0,23.700000762939453,23.700000762939453,30155
2017-09-26,23.950000762939453,24.649999618530273,23.149999618530273,24.299999237060547,24.299999237060547,14314
2017-09-27,24.350000381469727,25.200000762939453,23.649999618530273,24.200000762939453,24.200000762939453,35046
2017-09-28,24.049999237060547,24.5,24.049999237060547,24.200000762939453,24.200000762939453,15036
2017-09-29,24.5,25.700000762939453,23.399999618530273,23.600000381469727,23.600000381469727,22638
2017-10-03,23.700000762939453,24.549999237060547,22.200000762939453,23.25,23.25,25977
2017-10-04,22.149999618530273,27.899999618530273,22.149999618530273,27.799999237060547,27.799999237060547,466702
2017-10-05,29.0,29.0,25.200000762939453,25.450000762939453,25.450000762939453,189552
2017-10-06,24.899999618530273,26.350000381469727,24.899999618530273,26.049999237060547,26.049999237060547,48435
2017-10-09,25.899999618530273,26.450000762939453,25.350000381469727,25.649999618530273,25.649999618530273,54374
2017-10-10,25.600000381469727,26.149999618530273,25.0,25.549999237060547,25.549999237060547,41537
2017-10-11,25.549999237060547,25.799999237060547,24.75,25.100000381469727,25.100000381469727,27762
2017-10-12,25.0,25.399999618530273,24.5,24.850000381469727,24.850000381469727,16547
2017-10-13,25.5,27.049999237060547,24.350000381469727,25.649999618530273,25.649999618530273,87549
2017-10-16,25.399999618530273,26.0,24.0,24.549999237060547,24.549999237060547,88438
2017-10-17,25.149999618530273,26.700000762939453,24.549999237060547,26.0,26.0,53834
2017-10-18,26.0,26.899999618530273,25.25,26.299999237060547,26.299999237060547,126355
2017-10-19,26.299999237060547,27.0,25.299999237060547,25.600000381469727,25.600000381469727,20135
2017-10-23,25.5,26.25,24.5,24.950000762939453,24.950000762939453,55228
2017-10-24,25.600000381469727,25.600000381469727,25.049999237060547,25.25,25.25,19192
2017-10-25,25.75,25.75,25.049999237060547,25.350000381469727,25.350000381469727,37249
2017-10-26,25.850000381469727,25.899999618530273,24.700000762939453,25.049999237060547,25.049999237060547,72886
2017-10-27,25.649999618530273,25.649999618530273,24.950000762939453,25.100000381469727,25.100000381469727,40445
2017-10-30,25.549999237060547,25.600000381469727,24.649999618530273,25.399999618530273,25.399999618530273,23010
2017-10-31,25.0,25.649999618530273,24.700000762939453,25.200000762939453,25.200000762939453,9738
2017-11-01,25.5,26.100000381469727,25.0,25.100000381469727,25.100000381469727,29229
2017-11-02,25.450000762939453,26.5,25.149999618530273,25.649999618530273,25.649999618530273,63373
2017-11-03,26.299999237060547,27.299999237060547,25.5,25.75,25.75,111485
2017-11-06,25.75,26.549999237060547,24.799999237060547,25.649999618530273,25.649999618530273,44534
2017-11-07,25.649999618530273,26.450000762939453,24.600000381469727,24.850000381469727,24.850000381469727,93213
2017-11-08,25.700000762939453,27.0,24.549999237060547,25.799999237060547,25.799999237060547,131733
2017-11-09,26.299999237060547,26.450000762939453,25.0,25.399999618530273,25.399999618530273,30202
2017-11-10,25.5,26.450000762939453,25.299999237060547,25.649999618530273,25.649999618530273,42804
2017-11-13,25.25,28.450000762939453,25.25,27.149999618530273,27.149999618530273,212054
2017-11-14,27.0,28.899999618530273,25.75,26.299999237060547,26.299999237060547,246519
2017-11-15,26.5,26.5,24.200000762939453,24.950000762939453,24.950000762939453,105040
2017-11-16,25.450000762939453,25.75,24.75,24.950000762939453,24.950000762939453,38103
2017-11-17,24.700000762939453,25.600000381469727,24.399999618530273,25.0,25.0,45313
2017-11-20,24.75,25.399999618530273,24.75,25.0,25.0,14317
2017-11-21,25.25,25.350000381469727,24.5,24.950000762939453,24.950000762939453,21609
2017-11-22,25.0,26.899999618530273,24.5,26.200000762939453,26.200000762939453,97451
2017-11-23,26.950000762939453,27.600000381469727,26.549999237060547,26.950000762939453,26.950000762939453,232717
2017-11-24,26.950000762939453,27.399999618530273,26.049999237060547,27.049999237060547,27.049999237060547,56414
2017-11-27,27.049999237060547,27.5,26.25,26.549999237060547,26.549999237060547,66134
2017-11-28,26.549999237060547,27.5,26.299999237060547,26.549999237060547,26.549999237060547,57655
2017-11-29,26.5,26.75,26.100000381469727,26.149999618530273,26.149999618530273,20444
2017-11-30,26.0,26.75,25.25,25.950000762939453,25.950000762939453,34767
2017-12-01,25.950000762939453,26.649999618530273,25.649999618530273,25.850000381469727,25.850000381469727,65269
2017-12-04,26.5,26.5,25.25,25.299999237060547,25.299999237060547,26779
2017-12-05,25.950000762939453,26.25,24.899999618530273,25.149999618530273,25.149999618530273,21877
2017-12-06,25.149999618530273,28.450000762939453,25.0,26.149999618530273,26.149999618530273,151123
2017-12-07,26.149999618530273,27.799999237060547,26.149999618530273,26.950000762939453,26.950000762939453,91198
2017-12-08,26.950000762939453,29.399999618530273,26.850000381469727,28.0,28.0,517268
2017-12-11,28.0,30.799999237060547,28.0,29.200000762939453,29.200000762939453,730344
2017-12-12,29.5,29.5,27.600000381469727,27.899999618530273,27.899999618530273,103660
2017-12-13,27.899999618530273,29.899999618530273,26.850000381469727,27.049999237060547,27.049999237060547,176048
2017-12-14,27.549999237060547,28.200000762939453,27.0,27.600000381469727,27.600000381469727,74357
2017-12-15,28.0,28.25,27.399999618530273,27.649999618530273,27.649999618530273,58777
2017-12-18,27.200000762939453,28.399999618530273,26.850000381469727,27.5,27.5,54297
2017-12-19,27.5,29.25,27.350000381469727,27.850000381469727,27.850000381469727,101570
2017-12-20,27.850000381469727,28.5,27.700000762939453,28.0,28.0,79056
2017-12-21,28.0,29.25,28.0,28.75,28.75,118370
2017-12-22,29.25,29.450000762939453,28.5,28.649999618530273,28.649999618530273,57848
2017-12-26,28.649999618530273,30.5,28.649999618530273,29.149999618530273,29.149999618530273,123094
2017-12-27,28.899999618530273,30.149999618530273,28.700000762939453,28.799999237060547,28.799999237060547,73317
2017-12-28,29.0,29.5,28.5,28.799999237060547,28.799999237060547,61720
2017-12-29,28.799999237060547,29.799999237060547,28.799999237060547,29.149999618530273,29.149999618530273,69722
2018-01-01,29.149999618530273,34.95000076293945,29.149999618530273,34.5,34.5,1204415
2018-01-02,35.900001525878906,36.79999923706055,32.349998474121094,33.599998474121094,33.599998474121094,590874
2018-01-03,33.849998474121094,34.599998474121094,32.400001525878906,33.0,33.0,207126
2018-01-04,33.0,39.349998474121094,33.0,38.79999923706055,38.79999923706055,1339824
2018-01-05,38.20000076293945,38.650001525878906,36.25,36.650001525878906,36.650001525878906,465694
2018-01-08,37.29999923706055,38.599998474121094,36.150001525878906,37.400001525878906,37.400001525878906,378540
2018-01-09,37.099998474121094,39.0,36.20000076293945,37.849998474121094,37.849998474121094,362218
2018-01-10,37.70000076293945,39.400001525878906,36.29999923706055,36.650001525878906,36.650001525878906,207622
2018-01-11,36.900001525878906,37.5,35.599998474121094,37.150001525878906,37.150001525878906,214913
2018-01-12,37.5,38.400001525878906,36.0,37.70000076293945,37.70000076293945,332921
2018-01-15,37.900001525878906,38.599998474121094,36.75,36.900001525878906,36.900001525878906,276901
2018-01-16,37.20000076293945,38.0,36.099998474121094,36.20000076293945,36.20000076293945,324027
2018-01-17,36.20000076293945,36.45000076293945,33.70000076293945,34.95000076293945,34.95000076293945,89851
2018-01-18,35.20000076293945,36.0,34.099998474121094,34.5,34.5,125266
2018-01-19,34.75,34.75,33.25,33.75,33.75,76137
2018-01-22,34.099998474121094,34.900001525878906,33.29999923706055,33.75,33.75,69356
2018-01-23,33.900001525878906,34.400001525878906,33.400001525878906,33.70000076293945,33.70000076293945,45874
2018-01-24,33.599998474121094,33.95000076293945,32.099998474121094,32.349998474121094,32.349998474121094,65431
2018-01-25,32.650001525878906,33.29999923706055,32.04999923706055,32.54999923706055,32.54999923706055,50645
2018-01-29,32.29999923706055,33.0,30.049999237060547,30.649999618530273,30.649999618530273,114824
2018-01-30,30.649999618530273,30.649999618530273,27.899999618530273,28.350000381469727,28.350000381469727,154096
2018-01-31,28.5,29.350000381469727,27.75,28.799999237060547,28.799999237060547,70014
2018-02-01,28.5,30.100000381469727,28.350000381469727,29.799999237060547,29.799999237060547,69554
2018-02-02,29.5,29.5,28.0,28.350000381469727,28.350000381469727,76576
2018-02-05,28.0,28.0,26.399999618530273,27.549999237060547,27.549999237060547,49727
2018-02-06,26.299999237060547,29.5,24.049999237060547,28.899999618530273,28.899999618530273,834172
2018-02-07,28.899999618530273,29.700000762939453,28.200000762939453,28.600000381469727,28.600000381469727,67944
2018-02-08,28.649999618530273,31.700000762939453,28.350000381469727,30.25,30.25,149136
2018-02-09,29.200000762939453,30.399999618530273,28.5,29.75,29.75,78246
2018-02-12,30.200000762939453,31.0,29.049999237060547,29.549999237060547,29.549999237060547,288960
2018-02-14,30.0,30.399999618530273,29.0,29.25,29.25,82001
2018-02-15,29.950000762939453,29.950000762939453,28.75,28.799999237060547,28.799999237060547,36126
2018-02-16,28.700000762939453,29.399999618530273,28.0,28.25,28.25,22888
2018-02-19,27.600000381469727,29.399999618530273,27.25,28.5,28.5,168100
2018-02-20,28.200000762939453,28.450000762939453,27.5,28.049999237060547,28.049999237060547,21524
2018-02-21,28.25,28.399999618530273,27.700000762939453,27.950000762939453,27.950000762939453,9267
2018-02-22,28.0,28.299999237060547,26.549999237060547,27.149999618530273,27.149999618530273,10933
2018-02-23,27.899999618530273,29.399999618530273,27.5,28.850000381469727,28.850000381469727,40638
2018-02-26,29.399999618530273,32.5,28.350000381469727,29.149999618530273,29.149999618530273,83870
2018-02-27,29.450000762939453,29.5,28.100000381469727,28.25,28.25,16195
2018-02-28,28.0,28.75,27.700000762939453,28.149999618530273,28.149999618530273,106852
2018-03-01,28.399999618530273,28.600000381469727,27.600000381469727,27.75,27.75,34740
2018-03-05,28.100000381469727,28.299999237060547,27.100000381469727,27.450000762939453,27.450000762939453,36047
2018-03-06,28.0,28.200000762939453,26.799999237060547,27.049999237060547,27.049999237060547,49729
2018-03-07,26.5,28.0,26.25,26.950000762939453,26.950000762939453,56458
2018-03-08,26.950000762939453,26.950000762939453,26.450000762939453,26.600000381469727,26.600000381469727,18211
2018-03-09,26.25,26.950000762939453,26.0,26.5,26.5,26802
2018-03-12,26.649999618530273,27.049999237060547,26.399999618530273,26.75,26.75,20040
2018-03-13,26.5,27.899999618530273,26.450000762939453,27.399999618530273,27.399999618530273,29423
2018-03-14,27.049999237060547,30.600000381469727,27.0,30.25,30.25,128134
2018-03-15,30.149999618530273,30.5,28.5,28.649999618530273,28.649999618530273,31998
2018-03-16,28.950000762939453,30.5,28.350000381469727,28.850000381469727,28.850000381469727,69051
2018-03-19,28.850000381469727,30.5,27.5,28.950000762939453,28.950000762939453,49744
2018-03-20,28.549999237060547,28.899999618530273,27.600000381469727,28.100000381469727,28.100000381469727,51825
2018-03-21,28.899999618530273,29.399999618530273,27.600000381469727,27.700000762939453,27.700000762939453,11109
2018-03-22,28.899999618530273,29.399999618530273,27.25,27.350000381469727,27.350000381469727,27394
2018-03-23,26.100000381469727,27.450000762939453,26.049999237060547,26.25,26.25,48159
2018-03-26,26.25,26.799999237060547,25.0,25.549999237060547,25.549999237060547,246278
2018-03-27,25.799999237060547,26.0,25.0,25.25,25.25,90734
2018-03-28,25.5,25.75,24.5,24.549999237060547,24.549999237060547,53053
2018-04-02,25.450000762939453,25.700000762939453,24.600000381469727,24.799999237060547,24.799999237060547,68222
2018-04-03,24.700000762939453,25.549999237060547,24.049999237060547,24.899999618530273,24.899999618530273,212043
2018-04-04,25.850000381469727,27.350000381469727,25.149999618530273,25.600000381469727,25.600000381469727,52601
2018-04-05,25.75,27.75,25.600000381469727,27.049999237060547,27.049999237060547,125111
2018-04-06,27.649999618530273,27.700000762939453,26.5,27.200000762939453,27.200000762939453,24821
2018-04-09,27.0,28.0,26.600000381469727,27.100000381469727,27.100000381469727,108350
2018-04-10,27.100000381469727,27.75,26.600000381469727,27.200000762939453,27.200000762939453,40344
2018-04-11,27.200000762939453,27.700000762939453,25.899999618530273,26.399999618530273,26.399999618530273,85472
2018-04-12,26.299999237060547,27.25,26.049999237060547,26.149999618530273,26.149999618530273,116092
2018-04-13,26.450000762939453,28.100000381469727,26.399999618530273,27.399999618530273,27.399999618530273,142960
2018-04-16,27.200000762939453,27.5,26.149999618530273,26.399999618530273,26.399999618530273,98479
2018-04-17,27.200000762939453,27.200000762939453,26.649999618530273,26.850000381469727,26.850000381469727,22964
2018-04-18,27.0,27.25,26.600000381469727,26.799999237060547,26.799999237060547,10815
2018-04-19,26.799999237060547,27.149999618530273,26.75,27.0,27.0,13237
2018-04-20,27.0,27.700000762939453,26.549999237060547,26.799999237060547,26.799999237060547,6821
2018-04-23,27.25,27.350000381469727,26.0,26.649999618530273,26.649999618530273,60102
2018-04-24,27.0,27.700000762939453,26.350000381469727,26.850000381469727,26.850000381469727,67272
2018-04-25,26.850000381469727,27.299999237060547,26.0,26.049999237060547,26.049999237060547,81962
2018-04-26,26.049999237060547,26.899999618530273,25.600000381469727,26.450000762939453,26.450000762939453,24854
2018-04-27,27.0,27.5,26.25,27.100000381469727,27.100000381469727,39215
2018-04-30,27.5,27.75,27.149999618530273,27.549999237060547,27.549999237060547,43476
2018-05-02,28.600000381469727,28.600000381469727,26.299999237060547,26.399999618530273,26.399999618530273,33957
2018-05-03,27.299999237060547,27.299999237060547,26.0,26.5,26.5,23307
2018-05-04,27.25,27.75,26.350000381469727,27.700000762939453,27.700000762939453,38549
2018-05-07,27.5,28.700000762939453,27.149999618530273,28.5,28.5,52133
2018-05-08,28.5,29.0,27.549999237060547,28.25,28.25,48730
2018-05-09,28.25,28.75,27.350000381469727,27.450000762939453,27.450000762939453,50899
2018-05-10,27.450000762939453,28.600000381469727,27.0,27.149999618530273,27.149999618530273,36529
2018-05-11,27.149999618530273,27.149999618530273,26.799999237060547,27.049999237060547,27.049999237060547,18827
2018-05-14,27.700000762939453,27.700000762939453,26.549999237060547,26.700000762939453,26.700000762939453,11094
2018-05-15,26.700000762939453,27.100000381469727,26.25,26.600000381469727,26.600000381469727,11669
2018-05-16,26.600000381469727,26.700000762939453,26.100000381469727,26.350000381469727,26.350000381469727,10927
2018-05-17,27.399999618530273,27.399999618530273,26.399999618530273,27.0,27.0,17278
2018-05-18,27.0,27.049999237060547,26.600000381469727,26.700000762939453,26.700000762939453,6469
2018-05-21,26.75,27.149999618530273,24.450000762939453,24.950000762939453,24.950000762939453,45497
2018-05-22,25.0,25.700000762939453,24.049999237060547,24.25,24.25,73614
2018-05-23,24.75,24.950000762939453,24.200000762939453,24.450000762939453,24.450000762939453,32052
2018-05-24,24.399999618530273,24.600000381469727,23.700000762939453,24.100000381469727,24.100000381469727,41146
2018-05-25,23.950000762939453,24.399999618530273,23.899999618530273,24.350000381469727,24.350000381469727,8010
2018-05-28,24.350000381469727,25.25,23.899999618530273,24.700000762939453,24.700000762939453,51292
2018-05-29,24.649999618530273,25.299999237060547,24.649999618530273,25.100000381469727,25.100000381469727,23611
2018-05-30,25.100000381469727,25.799999237060547,24.649999618530273,25.450000762939453,25.450000762939453,42015
2018-05-31,25.0,25.200000762939453,24.299999237060547,24.399999618530273,24.399999618530273,22579
2018-06-01,24.25,24.649999618530273,23.5,23.600000381469727,23.600000381469727,14027
2018-06-04,23.75,24.0,21.0,22.149999618530273,22.149999618530273,90424
2018-06-05,21.799999237060547,22.299999237060547,21.5,22.25,22.25,17796
2018-06-06,22.049999237060547,22.399999618530273,21.149999618530273,22.200000762939453,22.200000762939453,14167
2018-06-07,22.5,22.700000762939453,22.5,22.5,22.5,7769
2018-06-08,22.149999618530273,22.350000381469727,21.25,21.850000381469727,21.850000381469727,42515
2018-06-11,21.799999237060547,21.950000762939453,20.200000762939453,21.549999237060547,21.549999237060547,47887
2018-06-12,21.799999237060547,23.0,21.75,22.350000381469727,22.350000381469727,33910
2018-06-13,22.549999237060547,23.5,22.5,23.350000381469727,23.350000381469727,21124
2018-06-14,22.549999237060547,24.0,22.549999237060547,23.649999618530273,23.649999618530273,31099
2018-06-15,23.649999618530273,23.700000762939453,23.200000762939453,23.25,23.25,10224
2018-06-18,23.25,23.5,22.700000762939453,23.299999237060547,23.299999237060547,10124
2018-06-19,23.0,23.0,22.450000762939453,22.549999237060547,22.549999237060547,5262
2018-06-20,22.600000381469727,22.75,22.0,22.25,22.25,8592
2018-06-21,22.100000381469727,22.75,22.0,22.299999237060547,22.299999237060547,6777
2018-06-22,22.200000762939453,22.5,22.100000381469727,22.299999237060547,22.299999237060547,12025
2018-06-25,21.5,23.25,21.5,23.0,23.0,13308
2018-06-26,22.899999618530273,22.899999618530273,22.549999237060547,22.700000762939453,22.700000762939453,8710
2018-06-27,22.700000762939453,22.700000762939453,19.600000381469727,20.149999618530273,20.149999618530273,124047
2018-06-28,20.350000381469727,23.0,20.25,22.049999237060547,22.049999237060547,103316
2018-06-29,22.0,22.450000762939453,21.549999237060547,22.350000381469727,22.350000381469727,20140
2018-07-02,22.950000762939453,22.950000762939453,21.149999618530273,21.549999237060547,21.549999237060547,8834
2018-07-03,21.75,22.700000762939453,21.299999237060547,22.25,22.25,34569
2018-07-04,22.25,26.700000762939453,21.950000762939453,26.100000381469727,26.100000381469727,466788
2018-07-05,27.75,31.299999237060547,25.5,31.149999618530273,31.149999618530273,1296364
2018-07-06,31.299999237060547,32.95000076293945,28.399999618530273,31.75,31.75,626986
2018-07-09,32.45000076293945,34.0,31.549999237060547,32.04999923706055,32.04999923706055,317929
2018-07-10,31.100000381469727,31.850000381469727,30.100000381469727,31.149999618530273,31.149999618530273,107178
2018-07-11,31.100000381469727,31.100000381469727,28.5,29.850000381469727,29.850000381469727,160463
2018-07-12,29.0,30.899999618530273,28.149999618530273,28.649999618530273,28.649999618530273,267856
2018-07-13,28.049999237060547,28.950000762939453,26.399999618530273,26.700000762939453,26.700000762939453,178883
2018-07-16,26.700000762939453,27.299999237060547,25.25,26.25,26.25,85881
2018-07-17,26.0,27.700000762939453,26.0,26.200000762939453,26.200000762939453,155704
2018-07-18,26.049999237060547,26.899999618530273,24.5,24.700000762939453,24.700000762939453,236000
2018-07-19,24.700000762939453,25.25,23.399999618530273,24.200000762939453,24.200000762939453,131671
2018-07-20,24.25,24.899999618530273,23.5,23.75,23.75,32657
2018-07-23,23.799999237060547,25.700000762939453,23.799999237060547,25.299999237060547,25.299999237060547,26376
2018-07-24,24.75,26.0,24.75,25.299999237060547,25.299999237060547,53847
2018-07-25,25.299999237060547,26.100000381469727,24.799999237060547,25.0,25.0,202527
2018-07-26,25.0,25.450000762939453,22.649999618530273,22.899999618530273,22.899999618530273,337735
2018-07-27,23.100000381469727,24.5,23.0,23.75,23.75,58294
2018-07-30,23.799999237060547,24.799999237060547,23.799999237060547,24.350000381469727,24.350000381469727,34751
2018-07-31,24.5,25.600000381469727,24.149999618530273,24.850000381469727,24.850000381469727,77745
2018-08-01,24.799999237060547,27.299999237060547,24.600000381469727,26.450000762939453,26.450000762939453,408490
2018-08-02,26.549999237060547,27.25,24.25,26.100000381469727,26.100000381469727,668605
2018-08-03,26.600000381469727,27.200000762939453,26.0,26.25,26.25,389007
2018-08-06,26.899999618530273,28.299999237060547,26.600000381469727,27.950000762939453,27.950000762939453,131499
2018-08-07,28.049999237060547,29.200000762939453,26.600000381469727,26.799999237060547,26.799999237060547,291115
2018-08-08,26.799999237060547,28.450000762939453,26.700000762939453,27.0,27.0,139661
2018-08-09,27.0,27.100000381469727,26.350000381469727,26.799999237060547,26.799999237060547,32616
2018-08-10,26.700000762939453,28.0,26.549999237060547,26.799999237060547,26.799999237060547,67680
2018-08-13,26.0,27.700000762939453,26.0,27.149999618530273,27.149999618530273,86242
2018-08-14,27.149999618530273,28.399999618530273,27.049999237060547,27.899999618530273,27.899999618530273,158313
2018-08-16,27.649999618530273,29.75,27.350000381469727,28.75,28.75,183893
2018-08-17,28.950000762939453,30.299999237060547,27.0,29.25,29.25,682919
2018-08-20,29.600000381469727,29.600000381469727,28.600000381469727,29.350000381469727,29.350000381469727,59844
2018-08-21,29.0,30.299999237060547,28.850000381469727,29.25,29.25,734371
2018-08-23,29.0,29.600000381469727,27.700000762939453,28.5,28.5,97114
2018-08-24,28.25,28.450000762939453,26.899999618530273,27.350000381469727,27.350000381469727,593715
2018-08-27,27.200000762939453,28.0,26.600000381469727,26.899999618530273,26.899999618530273,319537
2018-08-28,27.0,27.0,26.299999237060547,26.799999237060547,26.799999237060547,123970
2018-08-29,26.850000381469727,26.850000381469727,26.399999618530273,26.5,26.5,14204
2018-08-30,26.399999618530273,26.799999237060547,25.799999237060547,26.100000381469727,26.100000381469727,227391
2018-08-31,26.100000381469727,26.75,26.100000381469727,26.25,26.25,20438
2018-09-03,26.950000762939453,28.25,26.0,26.149999618530273,26.149999618530273,616030
2018-09-04,26.149999618530273,26.549999237060547,25.700000762939453,25.950000762939453,25.950000762939453,113762
2018-09-05,25.649999618530273,26.399999618530273,25.399999618530273,26.100000381469727,26.100000381469727,28609
2018-09-06,26.100000381469727,29.0,26.100000381469727,27.850000381469727,27.850000381469727,418919
2018-09-07,28.0,29.0,27.5,27.75,27.75,1153226
2018-09-10,27.899999618530273,28.299999237060547,26.799999237060547,26.950000762939453,26.950000762939453,362317
2018-09-11,27.0,28.950000762939453,26.700000762939453,27.100000381469727,27.100000381469727,178523
2018-09-12,27.0,27.350000381469727,26.649999618530273,26.899999618530273,26.899999618530273,68053
2018-09-14,26.899999618530273,27.399999618530273,26.5,26.649999618530273,26.649999618530273,156447
2018-09-17,26.649999618530273,26.75,25.600000381469727,25.799999237060547,25.799999237060547,81929
2018-09-18,25.950000762939453,26.25,25.5,25.75,25.75,65431
2018-09-19,25.75,28.0,25.75,25.799999237060547,25.799999237060547,95211
2018-09-21,25.799999237060547,26.450000762939453,24.549999237060547,25.049999237060547,25.049999237060547,43774
2018-09-24,25.049999237060547,25.399999618530273,24.549999237060547,25.049999237060547,25.049999237060547,19347
2018-09-25,25.950000762939453,25.950000762939453,24.299999237060547,25.149999618530273,25.149999618530273,38426
2018-09-26,26.799999237060547,26.799999237060547,25.200000762939453,25.350000381469727,25.350000381469727,19911
2018-09-27,25.049999237060547,25.049999237060547,24.399999618530273,24.5,24.5,19762
2018-09-28,24.5,24.5,23.600000381469727,23.75,23.75,38205
2018-10-01,23.5,23.899999618530273,22.5,23.0,23.0,47744
2018-10-03,23.5,23.75,22.899999618530273,23.049999237060547,23.049999237060547,28317
2018-10-04,22.950000762939453,23.700000762939453,21.049999237060547,21.899999618530273,21.899999618530273,611874
2018-10-05,22.0,22.0,20.200000762939453,21.350000381469727,21.350000381469727,200529
2018-10-08,21.100000381469727,24.450000762939453,20.850000381469727,22.149999618530273,22.149999618530273,28617
2018-10-09,22.0,22.75,21.850000381469727,22.049999237060547,22.049999237060547,25664
2018-10-10,22.299999237060547,23.399999618530273,22.049999237060547,22.899999618530273,22.899999618530273,32589
2018-10-11,22.399999618530273,22.75,21.299999237060547,22.299999237060547,22.299999237060547,17573
2018-10-12,22.899999618530273,23.149999618530273,22.100000381469727,22.399999618530273,22.399999618530273,34987
2018-10-15,23.399999618530273,23.450000762939453,22.0,22.450000762939453,22.450000762939453,111609
2018-10-16,22.950000762939453,25.100000381469727,22.799999237060547,24.799999237060547,24.799999237060547,118101
2018-10-17,27.399999618530273,29.700000762939453,26.25,27.799999237060547,27.799999237060547,1013772
2018-10-19,27.850000381469727,29.399999618530273,27.5,28.549999237060547,28.549999237060547,386356
2018-10-22,29.0,29.299999237060547,27.799999237060547,28.0,28.0,84440
2018-10-23,28.0,28.0,27.0,27.299999237060547,27.299999237060547,40046
2018-10-24,27.299999237060547,27.950000762939453,26.649999618530273,27.100000381469727,27.100000381469727,38891
2018-10-25,26.100000381469727,27.0,25.75,26.0,26.0,19110
2018-10-26,25.75,27.299999237060547,25.5,26.549999237060547,26.549999237060547,22160
2018-10-29,25.5,27.850000381469727,25.5,27.700000762939453,27.700000762939453,79187
2018-10-30,27.700000762939453,28.5,27.549999237060547,27.899999618530273,27.899999618530273,44174
2018-10-31,27.700000762939453,28.700000762939453,27.549999237060547,28.5,28.5,30811
2018-11-01,28.5,29.5,27.549999237060547,28.5,28.5,57538
2018-11-02,27.5,29.899999618530273,27.5,29.149999618530273,29.149999618530273,88206
2018-11-05,30.600000381469727,30.600000381469727,29.700000762939453,30.600000381469727,30.600000381469727,139123
2018-11-06,32.099998474121094,32.099998474121094,31.100000381469727,32.099998474121094,32.099998474121094,94823
2018-11-07,33.70000076293945,33.70000076293945,32.70000076293945,33.45000076293945,33.45000076293945,150209
2018-11-09,33.45000076293945,35.099998474121094,32.099998474121094,33.599998474121094,33.599998474121094,152211
2018-11-12,34.75,34.75,31.950000762939453,31.950000762939453,31.950000762939453,101446
2018-11-13,30.799999237060547,33.0,30.75,31.799999237060547,31.799999237060547,90945
2018-11-14,31.75,32.5,31.200000762939453,31.950000762939453,31.950000762939453,53509
2018-11-15,32.099998474121094,32.70000076293945,31.799999237060547,32.04999923706055,32.04999923706055,16801
2018-11-16,31.299999237060547,32.25,31.0,31.200000762939453,31.200000762939453,50964
2018-11-19,31.700000762939453,31.799999237060547,30.700000762939453,30.850000381469727,30.850000381469727,25108
2018-11-20,30.850000381469727,31.450000762939453,29.350000381469727,29.799999237060547,29.799999237060547,13984
2018-11-21,29.5,30.549999237060547,28.799999237060547,29.200000762939453,29.200000762939453,13284
2018-11-22,29.100000381469727,30.100000381469727,29.100000381469727,29.899999618530273,29.899999618530273,9439
2018-11-26,29.899999618530273,30.5,29.149999618530273,29.5,29.5,16968
2018-11-27,29.5,30.799999237060547,28.5,28.850000381469727,28.850000381469727,11279
2018-11-28,28.850000381469727,29.0,28.5,28.649999618530273,28.649999618530273,19348
2018-11-29,28.649999618530273,29.5,27.799999237060547,28.25,28.25,28845
2018-11-30,28.0,29.649999618530273,28.0,29.200000762939453,29.200000762939453,61910
2018-12-03,28.100000381469727,30.5,28.100000381469727,30.100000381469727,30.100000381469727,24982
2018-12-04,29.0,30.600000381469727,29.0,29.549999237060547,29.549999237060547,26814
2018-12-05,29.299999237060547,30.0,29.0,29.149999618530273,29.149999618530273,5641
2018-12-06,29.149999618530273,29.5,28.850000381469727,29.200000762939453,29.200000762939453,21132
2018-12-07,28.5,30.25,28.5,29.100000381469727,29.100000381469727,16712
2018-12-10,28.399999618530273,28.5,27.75,28.100000381469727,28.100000381469727,9717
2018-12-11,28.0,29.100000381469727,27.799999237060547,28.850000381469727,28.850000381469727,17592
2018-12-12,28.049999237060547,29.0,28.049999237060547,28.899999618530273,28.899999618530273,3184
2018-12-13,27.799999237060547,29.950000762939453,27.799999237060547,29.100000381469727,29.100000381469727,11007
2018-12-14,28.100000381469727,29.75,28.100000381469727,28.700000762939453,28.700000762939453,14371
2018-12-17,28.299999237060547,30.100000381469727,28.299999237060547,29.75,29.75,33916
2018-12-18,29.0,30.350000381469727,29.0,30.100000381469727,30.100000381469727,17407
2018-12-19,30.25,30.25,29.049999237060547,29.149999618530273,29.149999618530273,46136
2018-12-20,29.899999618530273,30.600000381469727,29.5,30.5,30.5,70661
2018-12-21,31.5,32.0,29.299999237060547,29.649999618530273,29.649999618530273,40130
2018-12-24,28.700000762939453,30.100000381469727,28.700000762939453,29.600000381469727,29.600000381469727,16745
2018-12-26,29.0,30.100000381469727,28.799999237060547,28.799999237060547,28.799999237060547,49361
2018-12-27,28.799999237060547,30.100000381469727,28.399999618530273,28.850000381469727,28.850000381469727,11462
2018-12-28,28.549999237060547,30.049999237060547,28.549999237060547,29.950000762939453,29.950000762939453,24221
2018-12-31,29.100000381469727,31.25,29.100000381469727,29.25,29.25,17567
2019-01-01,29.0,30.0,28.200000762939453,29.0,29.0,4590
2019-01-02,28.5,29.700000762939453,28.5,29.299999237060547,29.299999237060547,6361
2019-01-03,29.0,29.149999618530273,28.5,28.850000381469727,28.850000381469727,9396
2019-01-04,29.0,29.450000762939453,28.5,29.299999237060547,29.299999237060547,8863
2019-01-07,28.600000381469727,30.0,28.600000381469727,29.049999237060547,29.049999237060547,3107
2019-01-08,28.149999618530273,30.5,28.149999618530273,30.200000762939453,30.200000762939453,29775
2019-01-09,30.200000762939453,31.0,29.700000762939453,29.950000762939453,29.950000762939453,41795
2019-01-10,30.899999618530273,30.899999618530273,29.700000762939453,30.0,30.0,45485
2019-01-11,29.600000381469727,31.0,29.5,29.700000762939453,29.700000762939453,81670
2019-01-14,29.950000762939453,29.950000762939453,28.5,28.75,28.75,104588
2019-01-15,28.200000762939453,28.899999618530273,27.600000381469727,27.649999618530273,27.649999618530273,52565
2019-01-16,27.600000381469727,27.649999618530273,26.299999237060547,26.299999237060547,26.299999237060547,100561
2019-01-17,26.0,26.0,25.200000762939453,25.5,25.5,113250
2019-01-18,25.0,25.700000762939453,24.350000381469727,24.549999237060547,24.549999237060547,47623
2019-01-21,24.100000381469727,24.399999618530273,23.600000381469727,24.299999237060547,24.299999237060547,55720
2019-01-22,23.899999618530273,24.200000762939453,23.5,24.0,24.0,74663
2019-01-23,24.0,24.799999237060547,24.0,24.350000381469727,24.350000381469727,25278
2019-01-24,24.350000381469727,24.549999237060547,23.799999237060547,23.950000762939453,23.950000762939453,36712
2019-01-25,23.799999237060547,24.450000762939453,23.75,23.799999237060547,23.799999237060547,38182
2019-01-28,23.799999237060547,23.799999237060547,22.700000762939453,22.850000381469727,22.850000381469727,152089
2019-01-29,23.350000381469727,23.549999237060547,23.0,23.350000381469727,23.350000381469727,65070
2019-01-30,23.100000381469727,24.25,23.100000381469727,24.100000381469727,24.100000381469727,55417
2019-01-31,24.0,24.5,24.0,24.100000381469727,24.100000381469727,13843
2019-02-01,24.100000381469727,24.850000381469727,23.700000762939453,24.5,24.5,16972
2019-02-04,24.0,24.0,23.299999237060547,23.350000381469727,23.350000381469727,47319
2019-02-05,23.100000381469727,23.5,22.5,22.649999618530273,22.649999618530273,13792
2019-02-06,22.350000381469727,23.649999618530273,22.350000381469727,23.049999237060547,23.049999237060547,12456
2019-02-07,23.200000762939453,23.25,22.600000381469727,23.0,23.0,15537
2019-02-08,22.799999237060547,23.100000381469727,22.75,22.799999237060547,22.799999237060547,18320
2019-02-11,22.649999618530273,23.25,22.0,22.350000381469727,22.350000381469727,18852
2019-02-12,22.700000762939453,22.75,22.0,22.100000381469727,22.100000381469727,14535
2019-02-14,22.399999618530273,22.399999618530273,21.549999237060547,21.75,21.75,12568
2019-02-15,21.799999237060547,22.100000381469727,21.649999618530273,22.0,22.0,8118
2019-02-18,22.049999237060547,22.049999237060547,20.899999618530273,20.950000762939453,20.950000762939453,63665
2019-02-19,20.950000762939453,21.5,20.700000762939453,21.25,21.25,14879
2019-02-20,20.399999618530273,21.399999618530273,20.399999618530273,20.799999237060547,20.799999237060547,19364
2019-02-21,21.200000762939453,21.5,21.0,21.5,21.5,26510
2019-02-22,21.450000762939453,22.350000381469727,21.200000762939453,22.0,22.0,25356
2019-02-25,22.0,22.5,21.850000381469727,21.950000762939453,21.950000762939453,15093
2019-02-26,22.0,22.700000762939453,21.600000381469727,22.549999237060547,22.549999237060547,12093
2019-02-27,22.549999237060547,22.899999618530273,21.450000762939453,21.450000762939453,21.450000762939453,23431
2019-02-28,21.149999618530273,21.899999618530273,20.5,21.649999618530273,21.649999618530273,27074
2019-03-01,21.950000762939453,22.700000762939453,21.399999618530273,22.649999618530273,22.649999618530273,19396
2019-03-05,22.649999618530273,23.75,22.549999237060547,23.600000381469727,23.600000381469727,18783
2019-03-06,23.649999618530273,24.549999237060547,23.649999618530273,24.200000762939453,24.200000762939453,15172
2019-03-07,23.899999618530273,24.200000762939453,23.75,23.950000762939453,23.950000762939453,8950
2019-03-08,23.75,23.850000381469727,22.950000762939453,23.200000762939453,23.200000762939453,32655
2019-03-11,22.899999618530273,23.700000762939453,22.850000381469727,23.700000762939453,23.700000762939453,40181
2019-03-12,23.350000381469727,24.0,23.350000381469727,23.700000762939453,23.700000762939453,33281
2019-03-13,23.549999237060547,23.799999237060547,23.0,23.149999618530273,23.149999618530273,7406
2019-03-14,23.049999237060547,23.399999618530273,22.100000381469727,22.700000762939453,22.700000762939453,8224
2019-03-15,22.950000762939453,23.299999237060547,22.600000381469727,23.049999237060547,23.049999237060547,76583
2019-03-18,22.850000381469727,23.600000381469727,22.5,23.0,23.0,5729
2019-03-19,22.399999618530273,23.399999618530273,22.399999618530273,23.049999237060547,23.049999237060547,36959
2019-03-20,23.0,23.0,22.299999237060547,22.5,22.5,15932
2019-03-22,22.649999618530273,23.0,22.299999237060547,22.649999618530273,22.649999618530273,8530
2019-03-25,22.600000381469727,22.600000381469727,21.600000381469727,22.100000381469727,22.100000381469727,8978
2019-03-26,22.200000762939453,22.200000762939453,21.600000381469727,21.850000381469727,21.850000381469727,39659
2019-03-27,21.950000762939453,22.399999618530273,21.549999237060547,21.75,21.75,66944
2019-03-28,21.75,22.0,21.299999237060547,21.399999618530273,21.399999618530273,48384
2019-04-01,21.350000381469727,22.350000381469727,21.350000381469727,22.350000381469727,22.350000381469727,25329
2019-04-02,22.350000381469727,23.149999618530273,22.350000381469727,22.600000381469727,22.600000381469727,6275
2019-04-03,22.600000381469727,23.100000381469727,22.149999618530273,22.350000381469727,22.350000381469727,11215
2019-04-04,22.350000381469727,22.5,22.100000381469727,22.200000762939453,22.200000762939453,3611
2019-04-05,22.25,22.600000381469727,22.049999237060547,22.399999618530273,22.399999618530273,10451
2019-04-08,21.649999618530273,22.75,21.649999618530273,22.350000381469727,22.350000381469727,8673
2019-04-09,22.299999237060547,22.899999618530273,22.100000381469727,22.299999237060547,22.299999237060547,60257
2019-04-10,22.25,22.899999618530273,22.100000381469727,22.5,22.5,56474
2019-04-11,23.5,23.5,22.25,22.25,22.25,17758
2019-04-12,22.25,22.799999237060547,22.100000381469727,22.299999237060547,22.299999237060547,14506
2019-04-15,22.5,23.0,22.5,22.5,22.5,20060
2019-04-16,22.049999237060547,22.950000762939453,22.049999237060547,22.25,22.25,14395
2019-04-18,22.200000762939453,22.899999618530273,22.200000762939453,22.399999618530273,22.399999618530273,11678
2019-04-22,22.049999237060547,22.399999618530273,21.399999618530273,21.450000762939453,21.450000762939453,18190
2019-04-23,21.149999618530273,22.600000381469727,20.850000381469727,20.950000762939453,20.950000762939453,44977
2019-04-24,22.649999618530273,22.649999618530273,20.950000762939453,21.149999618530273,21.149999618530273,9312
2019-04-25,21.25,21.700000762939453,21.049999237060547,21.149999618530273,21.149999618530273,8157
2019-04-26,21.25,21.5,20.799999237060547,21.0,21.0,13200
2019-04-30,21.049999237060547,21.049999237060547,20.100000381469727,20.5,20.5,5497
2019-05-02,21.350000381469727,21.350000381469727,20.049999237060547,20.700000762939453,20.700000762939453,12073
2019-05-03,20.600000381469727,22.700000762939453,20.600000381469727,20.799999237060547,20.799999237060547,38700
2019-05-06,20.350000381469727,20.950000762939453,20.299999237060547,20.549999237060547,20.549999237060547,5593
2019-05-07,20.200000762939453,20.899999618530273,20.200000762939453,20.850000381469727,20.850000381469727,1263
2019-05-08,20.649999618530273,20.899999618530273,19.850000381469727,20.299999237060547,20.299999237060547,5383
2019-05-09,20.350000381469727,20.700000762939453,19.950000762939453,20.700000762939453,20.700000762939453,1456
2019-05-10,20.649999618530273,21.0,20.0,20.700000762939453,20.700000762939453,14337
2019-05-13,20.549999237060547,20.549999237060547,19.950000762939453,20.049999237060547,20.049999237060547,4761
2019-05-14,20.049999237060547,20.200000762939453,18.950000762939453,19.899999618530273,19.899999618530273,18053
2019-05-15,20.049999237060547,21.25,20.0,21.100000381469727,21.100000381469727,37221
2019-05-16,20.450000762939453,21.450000762939453,20.399999618530273,20.950000762939453,20.950000762939453,10592
2019-05-17,21.149999618530273,21.600000381469727,20.600000381469727,21.200000762939453,21.200000762939453,7247
2019-05-20,20.799999237060547,21.899999618530273,20.799999237060547,21.700000762939453,21.700000762939453,41718
2019-05-21,21.100000381469727,21.649999618530273,20.950000762939453,21.450000762939453,21.450000762939453,8235
2019-05-22,21.25,21.5,20.850000381469727,20.899999618530273,20.899999618530273,4591
2019-05-23,21.049999237060547,21.700000762939453,21.049999237060547,21.200000762939453,21.200000762939453,14547
2019-05-24,21.100000381469727,21.899999618530273,21.0,21.75,21.75,14135
2019-05-27,21.5,22.25,21.5,22.0,22.0,11571
2019-05-28,21.299999237060547,22.0,21.200000762939453,21.700000762939453,21.700000762939453,2153
2019-05-29,21.25,21.75,21.25,21.399999618530273,21.399999618530273,2986
2019-05-30,21.5,22.25,21.100000381469727,21.600000381469727,21.600000381469727,20294
2019-05-31,21.549999237060547,22.049999237060547,20.75,20.950000762939453,20.950000762939453,37653
2019-06-03,21.399999618530273,21.399999618530273,20.299999237060547,20.799999237060547,20.799999237060547,13397
2019-06-04,20.75,20.75,20.200000762939453,20.299999237060547,20.299999237060547,24843
2019-06-06,20.100000381469727,20.899999618530273,19.899999618530273,20.399999618530273,20.399999618530273,20453
2019-06-07,20.899999618530273,21.0,19.950000762939453,20.700000762939453,20.700000762939453,7701
2019-06-10,20.549999237060547,20.899999618530273,19.899999618530273,20.0,20.0,10434
2019-06-11,20.0,20.450000762939453,19.950000762939453,20.25,20.25,2458
2019-06-12,20.25,20.700000762939453,20.0,20.149999618530273,20.149999618530273,5791
2019-06-13,20.049999237060547,20.549999237060547,19.649999618530273,20.0,20.0,21864
2019-06-14,20.049999237060547,20.100000381469727,19.75,20.0,20.0,32694
2019-06-17,19.899999618530273,19.899999618530273,18.600000381469727,19.100000381469727,19.100000381469727,18290
2019-06-18,19.049999237060547,22.0,18.25,18.899999618530273,18.899999618530273,56375
2019-06-19,19.049999237060547,19.049999237060547,16.100000381469727,17.399999618530273,17.399999618530273,139206
2019-06-20,16.450000762939453,18.700000762939453,16.200000762939453,17.149999618530273,17.149999618530273,14094
2019-06-21,16.950000762939453,17.649999618530273,16.549999237060547,17.5,17.5,16784
2019-06-24,17.299999237060547,18.350000381469727,16.799999237060547,17.0,17.0,22757
2019-06-25,17.299999237060547,18.200000762939453,17.049999237060547,18.100000381469727,18.100000381469727,10817
2019-06-26,17.549999237060547,20.0,17.299999237060547,18.25,18.25,11177
2019-06-27,18.149999618530273,18.600000381469727,17.700000762939453,18.299999237060547,18.299999237060547,40016
2019-06-28,18.100000381469727,19.149999618530273,18.049999237060547,19.049999237060547,19.049999237060547,30035
2019-07-01,18.899999618530273,19.700000762939453,18.75,19.0,19.0,4134
2019-07-02,19.450000762939453,19.450000762939453,18.700000762939453,18.799999237060547,18.799999237060547,1985
2019-07-03,18.549999237060547,18.75,18.100000381469727,18.399999618530273,18.399999618530273,4514
2019-07-04,18.299999237060547,19.049999237060547,18.100000381469727,18.950000762939453,18.950000762939453,13461
2019-07-05,19.700000762939453,19.700000762939453,18.5,19.049999237060547,19.049999237060547,11296
2019-07-08,18.899999618530273,18.899999618530273,18.149999618530273,18.25,18.25,3893
2019-07-09,18.0,18.700000762939453,18.0,18.549999237060547,18.549999237060547,3922
2019-07-10,18.200000762939453,18.299999237060547,17.0,17.5,17.5,61844
2019-07-11,18.25,18.25,17.200000762939453,17.350000381469727,17.350000381469727,10578
2019-07-12,18.25,18.25,17.200000762939453,17.399999618530273,17.399999618530273,5821
2019-07-15,16.649999618530273,17.700000762939453,16.649999618530273,17.0,17.0,25640
2019-07-16,17.149999618530273,17.149999618530273,16.399999618530273,16.5,16.5,53443
2019-07-17,16.600000381469727,17.399999618530273,16.450000762939453,16.850000381469727,16.850000381469727,40996
2019-07-18,16.700000762939453,17.200000762939453,16.5,16.700000762939453,16.700000762939453,21143
2019-07-19,16.5,17.399999618530273,16.5,16.799999237060547,16.799999237060547,9550
2019-07-22,16.399999618530273,16.399999618530273,15.600000381469727,16.25,16.25,13445
2019-07-23,17.100000381469727,17.100000381469727,16.149999618530273,16.350000381469727,16.350000381469727,9303
2019-07-24,16.149999618530273,16.450000762939453,16.0,16.149999618530273,16.149999618530273,8486
2019-07-25,16.25,16.450000762939453,16.0,16.25,16.25,4729
2019-07-26,15.199999809265137,17.149999618530273,15.199999809265137,16.899999618530273,16.899999618530273,11788
2019-07-29,16.5,16.899999618530273,16.25,16.649999618530273,16.649999618530273,15816
2019-07-30,16.899999618530273,17.5,16.149999618530273,16.350000381469727,16.350000381469727,18249
2019-07-31,16.0,17.200000762939453,16.0,16.450000762939453,16.450000762939453,12493
2019-08-01,16.549999237060547,16.600000381469727,15.899999618530273,16.0,16.0,3533
2019-08-02,15.800000190734863,16.0,15.600000381469727,15.649999618530273,15.649999618530273,8387
2019-08-05,15.100000381469727,16.5,13.800000190734863,15.100000381469727,15.100000381469727,79633
2019-08-06,15.649999618530273,15.75,15.050000190734863,15.149999618530273,15.149999618530273,12487
2019-08-07,15.25,15.5,15.050000190734863,15.149999618530273,15.149999618530273,7858
2019-08-08,15.149999618530273,15.899999618530273,14.899999618530273,15.0,15.0,3168
2019-08-09,15.0,16.5,14.800000190734863,15.75,15.75,4925
2019-08-13,15.699999809265137,15.699999809265137,14.050000190734863,14.5,14.5,18415
2019-08-14,14.600000381469727,14.949999809265137,14.350000381469727,14.550000190734863,14.550000190734863,10340
2019-08-16,14.350000381469727,15.100000381469727,14.25,15.0,15.0,23940
2019-08-19,14.949999809265137,15.050000190734863,14.300000190734863,14.449999809265137,14.449999809265137,14944
2019-08-20,14.25,14.600000381469727,14.0,14.050000190734863,14.050000190734863,32256
2019-08-21,13.300000190734863,14.0,13.300000190734863,13.850000381469727,13.850000381469727,21559
2019-08-22,14.0,14.0,12.949999809265137,12.949999809265137,12.949999809265137,31362
2019-08-23,12.699999809265137,13.5,12.649999618530273,13.100000381469727,13.100000381469727,10110
2019-08-26,13.350000381469727,14.449999809265137,13.300000190734863,13.800000190734863,13.800000190734863,6006
2019-08-27,13.850000381469727,14.600000381469727,13.699999809265137,13.800000190734863,13.800000190734863,16928
2019-08-28,13.800000190734863,14.399999618530273,13.800000190734863,14.0,14.0,6692
2019-08-29,13.5,14.0,13.399999618530273,13.75,13.75,4545
2019-08-30,13.699999809265137,14.449999809265137,13.649999618530273,13.899999618530273,13.899999618530273,29368
2019-09-03,14.050000190734863,14.75,13.949999809265137,14.5,14.5,6134
2019-09-04,14.399999618530273,14.550000190734863,13.850000381469727,14.449999809265137,14.449999809265137,3258
2019-09-05,14.149999618530273,15.0,14.149999618530273,14.550000190734863,14.550000190734863,3768
2019-09-06,14.300000190734863,15.949999809265137,14.300000190734863,15.550000190734863,15.550000190734863,8806
2019-09-09,15.550000190734863,16.950000762939453,15.550000190734863,16.549999237060547,16.549999237060547,16756
2019-09-11,17.350000381469727,19.850000381469727,17.350000381469727,18.950000762939453,18.950000762939453,213199
2019-09-12,18.950000762939453,21.450000762939453,17.649999618530273,18.799999237060547,18.799999237060547,131213
2019-09-13,18.5,19.25,17.5,18.0,18.0,30442
2019-09-16,17.899999618530273,18.5,17.149999618530273,18.049999237060547,18.049999237060547,9513
2019-09-17,18.25,18.350000381469727,17.399999618530273,17.600000381469727,17.600000381469727,9983
2019-09-18,17.5,18.850000381469727,17.25,18.0,18.0,13417
2019-09-19,18.450000762939453,18.899999618530273,17.100000381469727,18.0,18.0,29932
2019-09-20,17.950000762939453,18.950000762939453,17.200000762939453,18.100000381469727,18.100000381469727,27634
2019-09-23,18.100000381469727,18.600000381469727,17.600000381469727,17.700000762939453,17.700000762939453,16775
2019-09-24,17.75,18.049999237060547,17.299999237060547,17.549999237060547,17.549999237060547,5927
2019-09-25,17.950000762939453,17.950000762939453,17.149999618530273,17.350000381469727,17.350000381469727,16192
2019-09-26,17.75,20.25,17.149999618530273,19.350000381469727,19.350000381469727,184115
2019-09-27,19.350000381469727,20.200000762939453,18.0,18.399999618530273,18.399999618530273,336663
2019-09-30,18.200000762939453,18.75,16.5,16.899999618530273,16.899999618530273,103438
2019-10-01,17.049999237060547,17.450000762939453,15.649999618530273,16.399999618530273,16.399999618530273,42984
2019-10-03,15.399999618530273,16.25,15.399999618530273,15.649999618530273,15.649999618530273,53604
2019-10-04,15.649999618530273,16.0,15.199999809265137,15.350000381469727,15.350000381469727,14129
2019-10-07,15.300000190734863,15.75,14.850000381469727,15.300000190734863,15.300000190734863,33072
2019-10-09,15.399999618530273,15.399999618530273,14.699999809265137,14.850000381469727,14.850000381469727,12530
2019-10-10,14.199999809265137,15.100000381469727,14.199999809265137,14.350000381469727,14.350000381469727,19742
2019-10-11,14.350000381469727,15.050000190734863,14.25,14.649999618530273,14.649999618530273,5587
2019-10-14,14.949999809265137,15.199999809265137,14.199999809265137,14.449999809265137,14.449999809265137,8241
2019-10-15,14.850000381469727,16.799999237060547,14.5,15.800000190734863,15.800000190734863,24916
2019-10-16,15.449999809265137,17.450000762939453,15.449999809265137,17.200000762939453,17.200000762939453,49055
2019-10-17,17.0,17.200000762939453,15.75,17.0,17.0,11615
2019-10-18,16.899999618530273,17.399999618530273,16.25,16.950000762939453,16.950000762939453,3958
2019-10-22,16.899999618530273,17.0,16.200000762939453,16.799999237060547,16.799999237060547,212836
2019-10-23,16.75,17.049999237060547,16.399999618530273,16.850000381469727,16.850000381469727,8983
2019-10-24,16.649999618530273,17.0,16.450000762939453,17.0,17.0,1676
2019-10-25,16.950000762939453,16.950000762939453,15.800000190734863,16.299999237060547,16.299999237060547,4102
2019-10-27,16.75,17.299999237060547,15.899999618530273,17.100000381469727,17.100000381469727,2829
2019-10-29,16.899999618530273,17.0,16.149999618530273,16.350000381469727,16.350000381469727,9891
2019-10-30,16.200000762939453,16.600000381469727,15.5,15.600000381469727,15.600000381469727,12215
2019-10-31,16.450000762939453,17.950000762939453,15.5,16.399999618530273,16.399999618530273,115137
2019-11-01,16.100000381469727,17.600000381469727,15.800000190734863,16.100000381469727,16.100000381469727,20003
2019-11-04,16.049999237060547,16.799999237060547,15.100000381469727,15.550000190734863,15.550000190734863,29286
2019-11-05,15.800000190734863,16.0,15.300000190734863,15.850000381469727,15.850000381469727,18126
2019-11-06,15.649999618530273,16.25,15.5,15.5,15.5,21258
2019-11-07,15.449999809265137,15.949999809265137,15.449999809265137,15.649999618530273,15.649999618530273,13884
2019-11-08,15.850000381469727,15.850000381469727,15.199999809265137,15.5,15.5,2864
2019-11-11,15.649999618530273,15.75,15.149999618530273,15.350000381469727,15.350000381469727,3997
2019-11-13,15.649999618530273,15.649999618530273,15.050000190734863,15.100000381469727,15.100000381469727,2326
2019-11-14,14.949999809265137,15.649999618530273,14.800000190734863,15.0,15.0,14781
2019-11-15,15.199999809265137,15.199999809265137,14.949999809265137,15.050000190734863,15.050000190734863,4286
2019-11-18,15.0,15.050000190734863,14.550000190734863,14.699999809265137,14.699999809265137,6621
2019-11-19,14.800000190734863,15.100000381469727,14.550000190734863,14.800000190734863,14.800000190734863,2131
2019-11-20,14.800000190734863,15.0,14.300000190734863,14.899999618530273,14.899999618530273,5895
2019-11-21,14.899999618530273,14.899999618530273,14.550000190734863,14.649999618530273,14.649999618530273,1634
2019-11-22,14.649999618530273,14.899999618530273,14.0,14.199999809265137,14.199999809265137,13705
2019-11-25,13.949999809265137,14.800000190734863,13.949999809265137,14.25,14.25,10349
2019-11-26,14.25,14.699999809265137,14.25,14.399999618530273,14.399999618530273,5554
2019-11-27,14.800000190734863,14.800000190734863,14.149999618530273,14.199999809265137,14.199999809265137,19786
2019-11-28,14.300000190734863,14.649999618530273,14.25,14.300000190734863,14.300000190734863,10689
2019-11-29,14.5,14.850000381469727,14.149999618530273,14.300000190734863,14.300000190734863,15579
2019-12-02,14.25,15.25,14.100000381469727,14.399999618530273,14.399999618530273,12357
2019-12-03,14.5,14.5,14.050000190734863,14.100000381469727,14.100000381469727,4456
2019-12-04,14.100000381469727,14.449999809265137,14.0,14.25,14.25,7613
2019-12-05,14.25,14.399999618530273,14.100000381469727,14.199999809265137,14.199999809265137,1818
2019-12-06,14.149999618530273,14.649999618530273,13.899999618530273,13.949999809265137,13.949999809265137,69570
2019-12-09,14.199999809265137,14.399999618530273,13.850000381469727,13.949999809265137,13.949999809265137,10732
2019-12-10,13.800000190734863,14.100000381469727,13.449999809265137,13.5,13.5,7500
2019-12-11,13.350000381469727,13.399999618530273,13.100000381469727,13.149999618530273,13.149999618530273,8211
2019-12-12,13.5,13.75,13.199999809265137,13.300000190734863,13.300000190734863,10442
2019-12-13,13.949999809265137,13.949999809265137,13.25,13.449999809265137,13.449999809265137,7767
2019-12-16,13.350000381469727,13.649999618530273,13.149999618530273,13.399999618530273,13.399999618530273,7799
2019-12-17,13.600000381469727,15.100000381469727,13.600000381469727,14.199999809265137,14.199999809265137,112607
2019-12-18,14.899999618530273,14.899999618530273,13.550000190734863,14.0,14.0,19737
2019-12-19,13.949999809265137,14.25,13.550000190734863,14.0,14.0,20296
2019-12-20,14.0,14.449999809265137,13.600000381469727,13.649999618530273,13.649999618530273,6852
2019-12-23,14.5,14.5,13.300000190734863,13.600000381469727,13.600000381469727,13977
2019-12-24,14.0,14.800000190734863,12.649999618530273,13.199999809265137,13.199999809265137,109536
2019-12-26,13.149999618530273,13.199999809265137,12.899999618530273,13.149999618530273,13.149999618530273,56528
2019-12-27,13.100000381469727,14.350000381469727,13.050000190734863,13.949999809265137,13.949999809265137,98371
2019-12-30,14.100000381469727,14.199999809265137,13.350000381469727,13.850000381469727,13.850000381469727,11641
2019-12-31,13.800000190734863,14.600000381469727,13.699999809265137,14.350000381469727,14.350000381469727,5309
