Date,Open,High,Low,Close,Adj Close,Volume
2018-07-02 00:00:00+05:30,22.950000762939453,22.950000762939453,21.149999618530273,21.549999237060547,21.549999237060547,8834
2018-07-03 00:00:00+05:30,21.75,22.700000762939453,21.299999237060547,22.25,22.25,34569
2018-07-04 00:00:00+05:30,22.25,26.700000762939453,21.950000762939453,26.100000381469727,26.100000381469727,466788
2018-07-05 00:00:00+05:30,27.75,31.299999237060547,25.5,31.149999618530273,31.149999618530273,1296364
2018-07-06 00:00:00+05:30,31.299999237060547,32.95000076293945,28.399999618530273,31.75,31.75,626986
2018-07-09 00:00:00+05:30,32.45000076293945,34.0,31.549999237060547,32.04999923706055,32.04999923706055,317929
2018-07-10 00:00:00+05:30,31.100000381469727,31.850000381469727,30.100000381469727,31.149999618530273,31.149999618530273,107178
2018-07-11 00:00:00+05:30,31.100000381469727,31.100000381469727,28.5,29.850000381469727,29.850000381469727,160463
2018-07-12 00:00:00+05:30,29.0,30.899999618530273,28.149999618530273,28.649999618530273,28.649999618530273,267856
2018-07-13 00:00:00+05:30,28.049999237060547,28.950000762939453,26.399999618530273,26.700000762939453,26.700000762939453,178883
2018-07-16 00:00:00+05:30,26.700000762939453,27.299999237060547,25.25,26.25,26.25,85881
2018-07-17 00:00:00+05:30,26.0,27.700000762939453,26.0,26.200000762939453,26.200000762939453,155704
2018-07-18 00:00:00+05:30,26.049999237060547,26.899999618530273,24.5,24.700000762939453,24.700000762939453,236000
2018-07-19 00:00:00+05:30,24.700000762939453,25.25,23.399999618530273,24.200000762939453,24.200000762939453,131671
2018-07-20 00:00:00+05:30,24.25,24.899999618530273,23.5,23.75,23.75,32657
2018-07-23 00:00:00+05:30,23.799999237060547,25.700000762939453,23.799999237060547,25.299999237060547,25.299999237060547,26376
2018-07-24 00:00:00+05:30,24.75,26.0,24.75,25.299999237060547,25.299999237060547,53847
2018-07-25 00:00:00+05:30,25.299999237060547,26.100000381469727,24.799999237060547,25.0,25.0,202527
2018-07-26 00:00:00+05:30,25.0,25.450000762939453,22.649999618530273,22.899999618530273,22.899999618530273,337735
2018-07-27 00:00:00+05:30,23.100000381469727,24.5,23.0,23.75,23.75,58294
2018-07-30 00:00:00+05:30,23.799999237060547,24.799999237060547,23.799999237060547,24.350000381469727,24.350000381469727,34751
2018-07-31 00:00:00+05:30,24.5,25.600000381469727,24.149999618530273,24.850000381469727,24.850000381469727,77745
2018-08-01 00:00:00+05:30,24.799999237060547,27.299999237060547,24.600000381469727,26.450000762939453,26.450000762939453,408490
2018-08-02 00:00:00+05:30,26.549999237060547,27.25,24.25,26.100000381469727,26.100000381469727,668605
2018-08-03 00:00:00+05:30,26.600000381469727,27.200000762939453,26.0,26.25,26.25,389007
2018-08-06 00:00:00+05:30,26.899999618530273,28.299999237060547,26.600000381469727,27.950000762939453,27.950000762939453,131499
2018-08-07 00:00:00+05:30,28.049999237060547,29.200000762939453,26.600000381469727,26.799999237060547,26.799999237060547,291115
2018-08-08 00:00:00+05:30,26.799999237060547,28.450000762939453,26.700000762939453,27.0,27.0,139661
2018-08-09 00:00:00+05:30,27.0,27.100000381469727,26.350000381469727,26.799999237060547,26.799999237060547,32616
2018-08-10 00:00:00+05:30,26.700000762939453,28.0,26.549999237060547,26.799999237060547,26.799999237060547,67680
2018-08-13 00:00:00+05:30,26.0,27.700000762939453,26.0,27.149999618530273,27.149999618530273,86242
2018-08-14 00:00:00+05:30,27.149999618530273,28.399999618530273,27.049999237060547,27.899999618530273,27.899999618530273,158313
2018-08-16 00:00:00+05:30,27.649999618530273,29.75,27.350000381469727,28.75,28.75,183893
2018-08-17 00:00:00+05:30,28.950000762939453,30.299999237060547,27.0,29.25,29.25,682919
2018-08-20 00:00:00+05:30,29.600000381469727,29.600000381469727,28.600000381469727,29.350000381469727,29.350000381469727,59844
2018-08-21 00:00:00+05:30,29.0,30.299999237060547,28.850000381469727,29.25,29.25,734371
2018-08-23 00:00:00+05:30,29.0,29.600000381469727,27.700000762939453,28.5,28.5,97114
2018-08-24 00:00:00+05:30,28.25,28.450000762939453,26.899999618530273,27.350000381469727,27.350000381469727,593715
2018-08-27 00:00:00+05:30,27.200000762939453,28.0,26.600000381469727,26.899999618530273,26.899999618530273,319537
2018-08-28 00:00:00+05:30,27.0,27.0,26.299999237060547,26.799999237060547,26.799999237060547,123970
2018-08-29 00:00:00+05:30,26.850000381469727,26.850000381469727,26.399999618530273,26.5,26.5,14204
2018-08-30 00:00:00+05:30,26.399999618530273,26.799999237060547,25.799999237060547,26.100000381469727,26.100000381469727,227391
2018-08-31 00:00:00+05:30,26.100000381469727,26.75,26.100000381469727,26.25,26.25,20438
2018-09-03 00:00:00+05:30,26.950000762939453,28.25,26.0,26.149999618530273,26.149999618530273,616030
2018-09-04 00:00:00+05:30,26.149999618530273,26.549999237060547,25.700000762939453,25.950000762939453,25.950000762939453,113762
2018-09-05 00:00:00+05:30,25.649999618530273,26.399999618530273,25.399999618530273,26.100000381469727,26.100000381469727,28609
2018-09-06 00:00:00+05:30,26.100000381469727,29.0,26.100000381469727,27.850000381469727,27.850000381469727,418919
2018-09-07 00:00:00+05:30,28.0,29.0,27.5,27.75,27.75,1153226
2018-09-10 00:00:00+05:30,27.899999618530273,28.299999237060547,26.799999237060547,26.950000762939453,26.950000762939453,362317
2018-09-11 00:00:00+05:30,27.0,28.950000762939453,26.700000762939453,27.100000381469727,27.100000381469727,178523
2018-09-12 00:00:00+05:30,27.0,27.350000381469727,26.649999618530273,26.899999618530273,26.899999618530273,68053
2018-09-14 00:00:00+05:30,26.899999618530273,27.399999618530273,26.5,26.649999618530273,26.649999618530273,156447
2018-09-17 00:00:00+05:30,26.649999618530273,26.75,25.600000381469727,25.799999237060547,25.799999237060547,81929
2018-09-18 00:00:00+05:30,25.950000762939453,26.25,25.5,25.75,25.75,65431
2018-09-19 00:00:00+05:30,25.75,28.0,25.75,25.799999237060547,25.799999237060547,95211
2018-09-21 00:00:00+05:30,25.799999237060547,26.450000762939453,24.549999237060547,25.049999237060547,25.049999237060547,43774
2018-09-24 00:00:00+05:30,25.049999237060547,25.399999618530273,24.549999237060547,25.049999237060547,25.049999237060547,19347
2018-09-25 00:00:00+05:30,25.950000762939453,25.950000762939453,24.299999237060547,25.149999618530273,25.149999618530273,38426
2018-09-26 00:00:00+05:30,26.799999237060547,26.799999237060547,25.200000762939453,25.350000381469727,25.350000381469727,19911
2018-09-27 00:00:00+05:30,25.049999237060547,25.049999237060547,24.399999618530273,24.5,24.5,19762
2018-09-28 00:00:00+05:30,24.5,24.5,23.600000381469727,23.75,23.75,38205
2018-10-01 00:00:00+05:30,23.5,23.899999618530273,22.5,23.0,23.0,47744
2018-10-03 00:00:00+05:30,23.5,23.75,22.899999618530273,23.049999237060547,23.049999237060547,28317
2018-10-04 00:00:00+05:30,22.950000762939453,23.700000762939453,21.049999237060547,21.899999618530273,21.899999618530273,611874
2018-10-05 00:00:00+05:30,22.0,22.0,20.200000762939453,21.350000381469727,21.350000381469727,200529
2018-10-08 00:00:00+05:30,21.100000381469727,24.450000762939453,20.850000381469727,22.149999618530273,22.149999618530273,28617
2018-10-09 00:00:00+05:30,22.0,22.75,21.850000381469727,22.049999237060547,22.049999237060547,25664
2018-10-10 00:00:00+05:30,22.299999237060547,23.399999618530273,22.049999237060547,22.899999618530273,22.899999618530273,32589
2018-10-11 00:00:00+05:30,22.399999618530273,22.75,21.299999237060547,22.299999237060547,22.299999237060547,17573
2018-10-12 00:00:00+05:30,22.899999618530273,23.149999618530273,22.100000381469727,22.399999618530273,22.399999618530273,34987
2018-10-15 00:00:00+05:30,23.399999618530273,23.450000762939453,22.0,22.450000762939453,22.450000762939453,111609
2018-10-16 00:00:00+05:30,22.950000762939453,25.100000381469727,22.799999237060547,24.799999237060547,24.799999237060547,118101
2018-10-17 00:00:00+05:30,27.399999618530273,29.700000762939453,26.25,27.799999237060547,27.799999237060547,1013772
2018-10-19 00:00:00+05:30,27.850000381469727,29.399999618530273,27.5,28.549999237060547,28.549999237060547,386356
2018-10-22 00:00:00+05:30,29.0,29.299999237060547,27.799999237060547,28.0,28.0,84440
2018-10-23 00:00:00+05:30,28.0,28.0,27.0,27.299999237060547,27.299999237060547,40046
2018-10-24 00:00:00+05:30,27.299999237060547,27.950000762939453,26.649999618530273,27.100000381469727,27.100000381469727,38891
2018-10-25 00:00:00+05:30,26.100000381469727,27.0,25.75,26.0,26.0,19110
2018-10-26 00:00:00+05:30,25.75,27.299999237060547,25.5,26.549999237060547,26.549999237060547,22160
2018-10-29 00:00:00+05:30,25.5,27.850000381469727,25.5,27.700000762939453,27.700000762939453,79187
2018-10-30 00:00:00+05:30,27.700000762939453,28.5,27.549999237060547,27.899999618530273,27.899999618530273,44174
2018-10-31 00:00:00+05:30,27.700000762939453,28.700000762939453,27.549999237060547,28.5,28.5,30811
2018-11-01 00:00:00+05:30,28.5,29.5,27.549999237060547,28.5,28.5,57538
2018-11-02 00:00:00+05:30,27.5,29.899999618530273,27.5,29.149999618530273,29.149999618530273,88206
2018-11-05 00:00:00+05:30,30.600000381469727,30.600000381469727,29.700000762939453,30.600000381469727,30.600000381469727,139123
2018-11-06 00:00:00+05:30,32.099998474121094,32.099998474121094,31.100000381469727,32.099998474121094,32.099998474121094,94823
2018-11-07 00:00:00+05:30,33.70000076293945,33.70000076293945,32.70000076293945,33.45000076293945,33.45000076293945,150209
2018-11-09 00:00:00+05:30,33.45000076293945,35.099998474121094,32.099998474121094,33.599998474121094,33.599998474121094,152211
2018-11-12 00:00:00+05:30,34.75,34.75,31.950000762939453,31.950000762939453,31.950000762939453,101446
2018-11-13 00:00:00+05:30,30.799999237060547,33.0,30.75,31.799999237060547,31.799999237060547,90945
2018-11-14 00:00:00+05:30,31.75,32.5,31.200000762939453,31.950000762939453,31.950000762939453,53509
2018-11-15 00:00:00+05:30,32.099998474121094,32.70000076293945,31.799999237060547,32.04999923706055,32.04999923706055,16801
2018-11-16 00:00:00+05:30,31.299999237060547,32.25,31.0,31.200000762939453,31.200000762939453,50964
2018-11-19 00:00:00+05:30,31.700000762939453,31.799999237060547,30.700000762939453,30.850000381469727,30.850000381469727,25108
2018-11-20 00:00:00+05:30,30.850000381469727,31.450000762939453,29.350000381469727,29.799999237060547,29.799999237060547,13984
2018-11-21 00:00:00+05:30,29.5,30.549999237060547,28.799999237060547,29.200000762939453,29.200000762939453,13284
2018-11-22 00:00:00+05:30,29.100000381469727,30.100000381469727,29.100000381469727,29.899999618530273,29.899999618530273,9439
2018-11-26 00:00:00+05:30,29.899999618530273,30.5,29.149999618530273,29.5,29.5,16968
2018-11-27 00:00:00+05:30,29.5,30.799999237060547,28.5,28.850000381469727,28.850000381469727,11279
2018-11-28 00:00:00+05:30,28.850000381469727,29.0,28.5,28.649999618530273,28.649999618530273,19348
2018-11-29 00:00:00+05:30,28.649999618530273,29.5,27.799999237060547,28.25,28.25,28845
2018-11-30 00:00:00+05:30,28.0,29.649999618530273,28.0,29.200000762939453,29.200000762939453,61910
2018-12-03 00:00:00+05:30,28.100000381469727,30.5,28.100000381469727,30.100000381469727,30.100000381469727,24982
2018-12-04 00:00:00+05:30,29.0,30.600000381469727,29.0,29.549999237060547,29.549999237060547,26814
2018-12-05 00:00:00+05:30,29.299999237060547,30.0,29.0,29.149999618530273,29.149999618530273,5641
2018-12-06 00:00:00+05:30,29.149999618530273,29.5,28.850000381469727,29.200000762939453,29.200000762939453,21132
2018-12-07 00:00:00+05:30,28.5,30.25,28.5,29.100000381469727,29.100000381469727,16712
2018-12-10 00:00:00+05:30,28.399999618530273,28.5,27.75,28.100000381469727,28.100000381469727,9717
2018-12-11 00:00:00+05:30,28.0,29.100000381469727,27.799999237060547,28.850000381469727,28.850000381469727,17592
2018-12-12 00:00:00+05:30,28.049999237060547,29.0,28.049999237060547,28.899999618530273,28.899999618530273,3184
2018-12-13 00:00:00+05:30,27.799999237060547,29.950000762939453,27.799999237060547,29.100000381469727,29.100000381469727,11007
2018-12-14 00:00:00+05:30,28.100000381469727,29.75,28.100000381469727,28.700000762939453,28.700000762939453,14371
2018-12-17 00:00:00+05:30,28.299999237060547,30.100000381469727,28.299999237060547,29.75,29.75,33916
2018-12-18 00:00:00+05:30,29.0,30.350000381469727,29.0,30.100000381469727,30.100000381469727,17407
2018-12-19 00:00:00+05:30,30.25,30.25,29.049999237060547,29.149999618530273,29.149999618530273,46136
2018-12-20 00:00:00+05:30,29.899999618530273,30.600000381469727,29.5,30.5,30.5,70661
2018-12-21 00:00:00+05:30,31.5,32.0,29.299999237060547,29.649999618530273,29.649999618530273,40130
2018-12-24 00:00:00+05:30,28.700000762939453,30.100000381469727,28.700000762939453,29.600000381469727,29.600000381469727,16745
2018-12-26 00:00:00+05:30,29.0,30.100000381469727,28.799999237060547,28.799999237060547,28.799999237060547,49361
2018-12-27 00:00:00+05:30,28.799999237060547,30.100000381469727,28.399999618530273,28.850000381469727,28.850000381469727,11462
2018-12-28 00:00:00+05:30,28.549999237060547,30.049999237060547,28.549999237060547,29.950000762939453,29.950000762939453,24221
2018-12-31 00:00:00+05:30,29.100000381469727,31.25,29.100000381469727,29.25,29.25,17567
2019-01-01 00:00:00+05:30,29.0,30.0,28.200000762939453,29.0,29.0,4590
2019-01-02 00:00:00+05:30,28.5,29.700000762939453,28.5,29.299999237060547,29.299999237060547,6361
2019-01-03 00:00:00+05:30,29.0,29.149999618530273,28.5,28.850000381469727,28.850000381469727,9396
2019-01-04 00:00:00+05:30,29.0,29.450000762939453,28.5,29.299999237060547,29.299999237060547,8863
2019-01-07 00:00:00+05:30,28.600000381469727,30.0,28.600000381469727,29.049999237060547,29.049999237060547,3107
2019-01-08 00:00:00+05:30,28.149999618530273,30.5,28.149999618530273,30.200000762939453,30.200000762939453,29775
2019-01-09 00:00:00+05:30,30.200000762939453,31.0,29.700000762939453,29.950000762939453,29.950000762939453,41795
2019-01-10 00:00:00+05:30,30.899999618530273,30.899999618530273,29.700000762939453,30.0,30.0,45485
2019-01-11 00:00:00+05:30,29.600000381469727,31.0,29.5,29.700000762939453,29.700000762939453,81670
2019-01-14 00:00:00+05:30,29.950000762939453,29.950000762939453,28.5,28.75,28.75,104588
2019-01-15 00:00:00+05:30,28.200000762939453,28.899999618530273,27.600000381469727,27.649999618530273,27.649999618530273,52565
2019-01-16 00:00:00+05:30,27.600000381469727,27.649999618530273,26.299999237060547,26.299999237060547,26.299999237060547,100561
2019-01-17 00:00:00+05:30,26.0,26.0,25.200000762939453,25.5,25.5,113250
2019-01-18 00:00:00+05:30,25.0,25.700000762939453,24.350000381469727,24.549999237060547,24.549999237060547,47623
2019-01-21 00:00:00+05:30,24.100000381469727,24.399999618530273,23.600000381469727,24.299999237060547,24.299999237060547,55720
2019-01-22 00:00:00+05:30,23.899999618530273,24.200000762939453,23.5,24.0,24.0,74663
2019-01-23 00:00:00+05:30,24.0,24.799999237060547,24.0,24.350000381469727,24.350000381469727,25278
2019-01-24 00:00:00+05:30,24.350000381469727,24.549999237060547,23.799999237060547,23.950000762939453,23.950000762939453,36712
2019-01-25 00:00:00+05:30,23.799999237060547,24.450000762939453,23.75,23.799999237060547,23.799999237060547,38182
2019-01-28 00:00:00+05:30,23.799999237060547,23.799999237060547,22.700000762939453,22.850000381469727,22.850000381469727,152089
2019-01-29 00:00:00+05:30,23.350000381469727,23.549999237060547,23.0,23.350000381469727,23.350000381469727,65070
2019-01-30 00:00:00+05:30,23.100000381469727,24.25,23.100000381469727,24.100000381469727,24.100000381469727,55417
2019-01-31 00:00:00+05:30,24.0,24.5,24.0,24.100000381469727,24.100000381469727,13843
2019-02-01 00:00:00+05:30,24.100000381469727,24.850000381469727,23.700000762939453,24.5,24.5,16972
2019-02-04 00:00:00+05:30,24.0,24.0,23.299999237060547,23.350000381469727,23.350000381469727,47319
2019-02-05 00:00:00+05:30,23.100000381469727,23.5,22.5,22.649999618530273,22.649999618530273,13792
2019-02-06 00:00:00+05:30,22.350000381469727,23.649999618530273,22.350000381469727,23.049999237060547,23.049999237060547,12456
2019-02-07 00:00:00+05:30,23.200000762939453,23.25,22.600000381469727,23.0,23.0,15537
2019-02-08 00:00:00+05:30,22.799999237060547,23.100000381469727,22.75,22.799999237060547,22.799999237060547,18320
2019-02-11 00:00:00+05:30,22.649999618530273,23.25,22.0,22.350000381469727,22.350000381469727,18852
2019-02-12 00:00:00+05:30,22.700000762939453,22.75,22.0,22.100000381469727,22.100000381469727,14535
2019-02-14 00:00:00+05:30,22.399999618530273,22.399999618530273,21.549999237060547,21.75,21.75,12568
2019-02-15 00:00:00+05:30,21.799999237060547,22.100000381469727,21.649999618530273,22.0,22.0,8118
2019-02-18 00:00:00+05:30,22.049999237060547,22.049999237060547,20.899999618530273,20.950000762939453,20.950000762939453,63665
2019-02-19 00:00:00+05:30,20.950000762939453,21.5,20.700000762939453,21.25,21.25,14879
2019-02-20 00:00:00+05:30,20.399999618530273,21.399999618530273,20.399999618530273,20.799999237060547,20.799999237060547,19364
2019-02-21 00:00:00+05:30,21.200000762939453,21.5,21.0,21.5,21.5,26510
2019-02-22 00:00:00+05:30,21.450000762939453,22.350000381469727,21.200000762939453,22.0,22.0,25356
2019-02-25 00:00:00+05:30,22.0,22.5,21.850000381469727,21.950000762939453,21.950000762939453,15093
2019-02-26 00:00:00+05:30,22.0,22.700000762939453,21.600000381469727,22.549999237060547,22.549999237060547,12093
2019-02-27 00:00:00+05:30,22.549999237060547,22.899999618530273,21.450000762939453,21.450000762939453,21.450000762939453,23431
2019-02-28 00:00:00+05:30,21.149999618530273,21.899999618530273,20.5,21.649999618530273,21.649999618530273,27074
2019-03-01 00:00:00+05:30,21.950000762939453,22.700000762939453,21.399999618530273,22.649999618530273,22.649999618530273,19396
2019-03-05 00:00:00+05:30,22.649999618530273,23.75,22.549999237060547,23.600000381469727,23.600000381469727,18783
2019-03-06 00:00:00+05:30,23.649999618530273,24.549999237060547,23.649999618530273,24.200000762939453,24.200000762939453,15172
2019-03-07 00:00:00+05:30,23.899999618530273,24.200000762939453,23.75,23.950000762939453,23.950000762939453,8950
2019-03-08 00:00:00+05:30,23.75,23.850000381469727,22.950000762939453,23.200000762939453,23.200000762939453,32655
2019-03-11 00:00:00+05:30,22.899999618530273,23.700000762939453,22.850000381469727,23.700000762939453,23.700000762939453,40181
2019-03-12 00:00:00+05:30,23.350000381469727,24.0,23.350000381469727,23.700000762939453,23.700000762939453,33281
2019-03-13 00:00:00+05:30,23.549999237060547,23.799999237060547,23.0,23.149999618530273,23.149999618530273,7406
2019-03-14 00:00:00+05:30,23.049999237060547,23.399999618530273,22.100000381469727,22.700000762939453,22.700000762939453,8224
2019-03-15 00:00:00+05:30,22.950000762939453,23.299999237060547,22.600000381469727,23.049999237060547,23.049999237060547,76583
2019-03-18 00:00:00+05:30,22.850000381469727,23.600000381469727,22.5,23.0,23.0,5729
2019-03-19 00:00:00+05:30,22.399999618530273,23.399999618530273,22.399999618530273,23.049999237060547,23.049999237060547,36959
2019-03-20 00:00:00+05:30,23.0,23.0,22.299999237060547,22.5,22.5,15932
2019-03-22 00:00:00+05:30,22.649999618530273,23.0,22.299999237060547,22.649999618530273,22.649999618530273,8530
2019-03-25 00:00:00+05:30,22.600000381469727,22.600000381469727,21.600000381469727,22.100000381469727,22.100000381469727,8978
2019-03-26 00:00:00+05:30,22.200000762939453,22.200000762939453,21.600000381469727,21.850000381469727,21.850000381469727,39659
2019-03-27 00:00:00+05:30,21.950000762939453,22.399999618530273,21.549999237060547,21.75,21.75,66944
2019-03-28 00:00:00+05:30,21.75,22.0,21.299999237060547,21.399999618530273,21.399999618530273,48384
2019-04-01 00:00:00+05:30,21.350000381469727,22.350000381469727,21.350000381469727,22.350000381469727,22.350000381469727,25329
2019-04-02 00:00:00+05:30,22.350000381469727,23.149999618530273,22.350000381469727,22.600000381469727,22.600000381469727,6275
2019-04-03 00:00:00+05:30,22.600000381469727,23.100000381469727,22.149999618530273,22.350000381469727,22.350000381469727,11215
2019-04-04 00:00:00+05:30,22.350000381469727,22.5,22.100000381469727,22.200000762939453,22.200000762939453,3611
2019-04-05 00:00:00+05:30,22.25,22.600000381469727,22.049999237060547,22.399999618530273,22.399999618530273,10451
2019-04-08 00:00:00+05:30,21.649999618530273,22.75,21.649999618530273,22.350000381469727,22.350000381469727,8673
2019-04-09 00:00:00+05:30,22.299999237060547,22.899999618530273,22.100000381469727,22.299999237060547,22.299999237060547,60257
2019-04-10 00:00:00+05:30,22.25,22.899999618530273,22.100000381469727,22.5,22.5,56474
2019-04-11 00:00:00+05:30,23.5,23.5,22.25,22.25,22.25,17758
2019-04-12 00:00:00+05:30,22.25,22.799999237060547,22.100000381469727,22.299999237060547,22.299999237060547,14506
2019-04-15 00:00:00+05:30,22.5,23.0,22.5,22.5,22.5,20060
2019-04-16 00:00:00+05:30,22.049999237060547,22.950000762939453,22.049999237060547,22.25,22.25,14395
2019-04-18 00:00:00+05:30,22.200000762939453,22.899999618530273,22.200000762939453,22.399999618530273,22.399999618530273,11678
2019-04-22 00:00:00+05:30,22.049999237060547,22.399999618530273,21.399999618530273,21.450000762939453,21.450000762939453,18190
2019-04-23 00:00:00+05:30,21.149999618530273,22.600000381469727,20.850000381469727,20.950000762939453,20.950000762939453,44977
2019-04-24 00:00:00+05:30,22.649999618530273,22.649999618530273,20.950000762939453,21.149999618530273,21.149999618530273,9312
2019-04-25 00:00:00+05:30,21.25,21.700000762939453,21.049999237060547,21.149999618530273,21.149999618530273,8157
2019-04-26 00:00:00+05:30,21.25,21.5,20.799999237060547,21.0,21.0,13200
2019-04-30 00:00:00+05:30,21.049999237060547,21.049999237060547,20.100000381469727,20.5,20.5,5497
2019-05-02 00:00:00+05:30,21.350000381469727,21.350000381469727,20.049999237060547,20.700000762939453,20.700000762939453,12073
2019-05-03 00:00:00+05:30,20.600000381469727,22.700000762939453,20.600000381469727,20.799999237060547,20.799999237060547,38700
2019-05-06 00:00:00+05:30,20.350000381469727,20.950000762939453,20.299999237060547,20.549999237060547,20.549999237060547,5593
2019-05-07 00:00:00+05:30,20.200000762939453,20.899999618530273,20.200000762939453,20.850000381469727,20.850000381469727,1263
2019-05-08 00:00:00+05:30,20.649999618530273,20.899999618530273,19.850000381469727,20.299999237060547,20.299999237060547,5383
2019-05-09 00:00:00+05:30,20.350000381469727,20.700000762939453,19.950000762939453,20.700000762939453,20.700000762939453,1456
2019-05-10 00:00:00+05:30,20.649999618530273,21.0,20.0,20.700000762939453,20.700000762939453,14337
2019-05-13 00:00:00+05:30,20.549999237060547,20.549999237060547,19.950000762939453,20.049999237060547,20.049999237060547,4761
2019-05-14 00:00:00+05:30,20.049999237060547,20.200000762939453,18.950000762939453,19.899999618530273,19.899999618530273,18053
2019-05-15 00:00:00+05:30,20.049999237060547,21.25,20.0,21.100000381469727,21.100000381469727,37221
2019-05-16 00:00:00+05:30,20.450000762939453,21.450000762939453,20.399999618530273,20.950000762939453,20.950000762939453,10592
2019-05-17 00:00:00+05:30,21.149999618530273,21.600000381469727,20.600000381469727,21.200000762939453,21.200000762939453,7247
2019-05-20 00:00:00+05:30,20.799999237060547,21.899999618530273,20.799999237060547,21.700000762939453,21.700000762939453,41718
2019-05-21 00:00:00+05:30,21.100000381469727,21.649999618530273,20.950000762939453,21.450000762939453,21.450000762939453,8235
2019-05-22 00:00:00+05:30,21.25,21.5,20.850000381469727,20.899999618530273,20.899999618530273,4591
2019-05-23 00:00:00+05:30,21.049999237060547,21.700000762939453,21.049999237060547,21.200000762939453,21.200000762939453,14547
2019-05-24 00:00:00+05:30,21.100000381469727,21.899999618530273,21.0,21.75,21.75,14135
2019-05-27 00:00:00+05:30,21.5,22.25,21.5,22.0,22.0,11571
2019-05-28 00:00:00+05:30,21.299999237060547,22.0,21.200000762939453,21.700000762939453,21.700000762939453,2153
2019-05-29 00:00:00+05:30,21.25,21.75,21.25,21.399999618530273,21.399999618530273,2986
2019-05-30 00:00:00+05:30,21.5,22.25,21.100000381469727,21.600000381469727,21.600000381469727,20294
2019-05-31 00:00:00+05:30,21.549999237060547,22.049999237060547,20.75,20.950000762939453,20.950000762939453,37653
2019-06-03 00:00:00+05:30,21.399999618530273,21.399999618530273,20.299999237060547,20.799999237060547,20.799999237060547,13397
2019-06-04 00:00:00+05:30,20.75,20.75,20.200000762939453,20.299999237060547,20.299999237060547,24843
2019-06-06 00:00:00+05:30,20.100000381469727,20.899999618530273,19.899999618530273,20.399999618530273,20.399999618530273,20453
2019-06-07 00:00:00+05:30,20.899999618530273,21.0,19.950000762939453,20.700000762939453,20.700000762939453,7701
2019-06-10 00:00:00+05:30,20.549999237060547,20.899999618530273,19.899999618530273,20.0,20.0,10434
2019-06-11 00:00:00+05:30,20.0,20.450000762939453,19.950000762939453,20.25,20.25,2458
2019-06-12 00:00:00+05:30,20.25,20.700000762939453,20.0,20.149999618530273,20.149999618530273,5791
2019-06-13 00:00:00+05:30,20.049999237060547,20.549999237060547,19.649999618530273,20.0,20.0,21864
2019-06-14 00:00:00+05:30,20.049999237060547,20.100000381469727,19.75,20.0,20.0,32694
2019-06-17 00:00:00+05:30,19.899999618530273,19.899999618530273,18.600000381469727,19.100000381469727,19.100000381469727,18290
2019-06-18 00:00:00+05:30,19.049999237060547,22.0,18.25,18.899999618530273,18.899999618530273,56375
2019-06-19 00:00:00+05:30,19.049999237060547,19.049999237060547,16.100000381469727,17.399999618530273,17.399999618530273,139206
2019-06-20 00:00:00+05:30,16.450000762939453,18.700000762939453,16.200000762939453,17.149999618530273,17.149999618530273,14094
2019-06-21 00:00:00+05:30,16.950000762939453,17.649999618530273,16.549999237060547,17.5,17.5,16784
2019-06-24 00:00:00+05:30,17.299999237060547,18.350000381469727,16.799999237060547,17.0,17.0,22757
2019-06-25 00:00:00+05:30,17.299999237060547,18.200000762939453,17.049999237060547,18.100000381469727,18.100000381469727,10817
2019-06-26 00:00:00+05:30,17.549999237060547,20.0,17.299999237060547,18.25,18.25,11177
2019-06-27 00:00:00+05:30,18.149999618530273,18.600000381469727,17.700000762939453,18.299999237060547,18.299999237060547,40016
2019-06-28 00:00:00+05:30,18.100000381469727,19.149999618530273,18.049999237060547,19.049999237060547,19.049999237060547,30035
2019-07-01 00:00:00+05:30,18.899999618530273,19.700000762939453,18.75,19.0,19.0,4134
2019-07-02 00:00:00+05:30,19.450000762939453,19.450000762939453,18.700000762939453,18.799999237060547,18.799999237060547,1985
2019-07-03 00:00:00+05:30,18.549999237060547,18.75,18.100000381469727,18.399999618530273,18.399999618530273,4514
2019-07-04 00:00:00+05:30,18.299999237060547,19.049999237060547,18.100000381469727,18.950000762939453,18.950000762939453,13461
2019-07-05 00:00:00+05:30,19.700000762939453,19.700000762939453,18.5,19.049999237060547,19.049999237060547,11296
2019-07-08 00:00:00+05:30,18.899999618530273,18.899999618530273,18.149999618530273,18.25,18.25,3893
2019-07-09 00:00:00+05:30,18.0,18.700000762939453,18.0,18.549999237060547,18.549999237060547,3922
2019-07-10 00:00:00+05:30,18.200000762939453,18.299999237060547,17.0,17.5,17.5,61844
2019-07-11 00:00:00+05:30,18.25,18.25,17.200000762939453,17.350000381469727,17.350000381469727,10578
2019-07-12 00:00:00+05:30,18.25,18.25,17.200000762939453,17.399999618530273,17.399999618530273,5821
2019-07-15 00:00:00+05:30,16.649999618530273,17.700000762939453,16.649999618530273,17.0,17.0,25640
2019-07-16 00:00:00+05:30,17.149999618530273,17.149999618530273,16.399999618530273,16.5,16.5,53443
2019-07-17 00:00:00+05:30,16.600000381469727,17.399999618530273,16.450000762939453,16.850000381469727,16.850000381469727,40996
2019-07-18 00:00:00+05:30,16.700000762939453,17.200000762939453,16.5,16.700000762939453,16.700000762939453,21143
2019-07-19 00:00:00+05:30,16.5,17.399999618530273,16.5,16.799999237060547,16.799999237060547,9550
2019-07-22 00:00:00+05:30,16.399999618530273,16.399999618530273,15.600000381469727,16.25,16.25,13445
2019-07-23 00:00:00+05:30,17.100000381469727,17.100000381469727,16.149999618530273,16.350000381469727,16.350000381469727,9303
2019-07-24 00:00:00+05:30,16.149999618530273,16.450000762939453,16.0,16.149999618530273,16.149999618530273,8486
2019-07-25 00:00:00+05:30,16.25,16.450000762939453,16.0,16.25,16.25,4729
2019-07-26 00:00:00+05:30,15.199999809265137,17.149999618530273,15.199999809265137,16.899999618530273,16.899999618530273,11788
2019-07-29 00:00:00+05:30,16.5,16.899999618530273,16.25,16.649999618530273,16.649999618530273,15816
2019-07-30 00:00:00+05:30,16.899999618530273,17.5,16.149999618530273,16.350000381469727,16.350000381469727,18249
2019-07-31 00:00:00+05:30,16.0,17.200000762939453,16.0,16.450000762939453,16.450000762939453,12493
2019-08-01 00:00:00+05:30,16.549999237060547,16.600000381469727,15.899999618530273,16.0,16.0,3533
2019-08-02 00:00:00+05:30,15.800000190734863,16.0,15.600000381469727,15.649999618530273,15.649999618530273,8387
2019-08-05 00:00:00+05:30,15.100000381469727,16.5,13.800000190734863,15.100000381469727,15.100000381469727,79633
2019-08-06 00:00:00+05:30,15.649999618530273,15.75,15.050000190734863,15.149999618530273,15.149999618530273,12487
2019-08-07 00:00:00+05:30,15.25,15.5,15.050000190734863,15.149999618530273,15.149999618530273,7858
2019-08-08 00:00:00+05:30,15.149999618530273,15.899999618530273,14.899999618530273,15.0,15.0,3168
2019-08-09 00:00:00+05:30,15.0,16.5,14.800000190734863,15.75,15.75,4925
2019-08-13 00:00:00+05:30,15.699999809265137,15.699999809265137,14.050000190734863,14.5,14.5,18415
2019-08-14 00:00:00+05:30,14.600000381469727,14.949999809265137,14.350000381469727,14.550000190734863,14.550000190734863,10340
2019-08-16 00:00:00+05:30,14.350000381469727,15.100000381469727,14.25,15.0,15.0,23940
2019-08-19 00:00:00+05:30,14.949999809265137,15.050000190734863,14.300000190734863,14.449999809265137,14.449999809265137,14944
2019-08-20 00:00:00+05:30,14.25,14.600000381469727,14.0,14.050000190734863,14.050000190734863,32256
2019-08-21 00:00:00+05:30,13.300000190734863,14.0,13.300000190734863,13.850000381469727,13.850000381469727,21559
2019-08-22 00:00:00+05:30,14.0,14.0,12.949999809265137,12.949999809265137,12.949999809265137,31362
2019-08-23 00:00:00+05:30,12.699999809265137,13.5,12.649999618530273,13.100000381469727,13.100000381469727,10110
2019-08-26 00:00:00+05:30,13.350000381469727,14.449999809265137,13.300000190734863,13.800000190734863,13.800000190734863,6006
2019-08-27 00:00:00+05:30,13.850000381469727,14.600000381469727,13.699999809265137,13.800000190734863,13.800000190734863,16928
2019-08-28 00:00:00+05:30,13.800000190734863,14.399999618530273,13.800000190734863,14.0,14.0,6692
2019-08-29 00:00:00+05:30,13.5,14.0,13.399999618530273,13.75,13.75,4545
2019-08-30 00:00:00+05:30,13.699999809265137,14.449999809265137,13.649999618530273,13.899999618530273,13.899999618530273,29368
2019-09-03 00:00:00+05:30,14.050000190734863,14.75,13.949999809265137,14.5,14.5,6134
2019-09-04 00:00:00+05:30,14.399999618530273,14.550000190734863,13.850000381469727,14.449999809265137,14.449999809265137,3258
2019-09-05 00:00:00+05:30,14.149999618530273,15.0,14.149999618530273,14.550000190734863,14.550000190734863,3768
2019-09-06 00:00:00+05:30,14.300000190734863,15.949999809265137,14.300000190734863,15.550000190734863,15.550000190734863,8806
2019-09-09 00:00:00+05:30,15.550000190734863,16.950000762939453,15.550000190734863,16.549999237060547,16.549999237060547,16756
2019-09-11 00:00:00+05:30,17.350000381469727,19.850000381469727,17.350000381469727,18.950000762939453,18.950000762939453,213199
2019-09-12 00:00:00+05:30,18.950000762939453,21.450000762939453,17.649999618530273,18.799999237060547,18.799999237060547,131213
2019-09-13 00:00:00+05:30,18.5,19.25,17.5,18.0,18.0,30442
2019-09-16 00:00:00+05:30,17.899999618530273,18.5,17.149999618530273,18.049999237060547,18.049999237060547,9513
2019-09-17 00:00:00+05:30,18.25,18.350000381469727,17.399999618530273,17.600000381469727,17.600000381469727,9983
2019-09-18 00:00:00+05:30,17.5,18.850000381469727,17.25,18.0,18.0,13417
2019-09-19 00:00:00+05:30,18.450000762939453,18.899999618530273,17.100000381469727,18.0,18.0,29932
2019-09-20 00:00:00+05:30,17.950000762939453,18.950000762939453,17.200000762939453,18.100000381469727,18.100000381469727,27634
2019-09-23 00:00:00+05:30,18.100000381469727,18.600000381469727,17.600000381469727,17.700000762939453,17.700000762939453,16775
2019-09-24 00:00:00+05:30,17.75,18.049999237060547,17.299999237060547,17.549999237060547,17.549999237060547,5927
2019-09-25 00:00:00+05:30,17.950000762939453,17.950000762939453,17.149999618530273,17.350000381469727,17.350000381469727,16192
2019-09-26 00:00:00+05:30,17.75,20.25,17.149999618530273,19.350000381469727,19.350000381469727,184115
2019-09-27 00:00:00+05:30,19.350000381469727,20.200000762939453,18.0,18.399999618530273,18.399999618530273,336663
2019-09-30 00:00:00+05:30,18.200000762939453,18.75,16.5,16.899999618530273,16.899999618530273,103438
2019-10-01 00:00:00+05:30,17.049999237060547,17.450000762939453,15.649999618530273,16.399999618530273,16.399999618530273,42984
2019-10-03 00:00:00+05:30,15.399999618530273,16.25,15.399999618530273,15.649999618530273,15.649999618530273,53604
2019-10-04 00:00:00+05:30,15.649999618530273,16.0,15.199999809265137,15.350000381469727,15.350000381469727,14129
2019-10-07 00:00:00+05:30,15.300000190734863,15.75,14.850000381469727,15.300000190734863,15.300000190734863,33072
2019-10-09 00:00:00+05:30,15.399999618530273,15.399999618530273,14.699999809265137,14.850000381469727,14.850000381469727,12530
2019-10-10 00:00:00+05:30,14.199999809265137,15.100000381469727,14.199999809265137,14.350000381469727,14.350000381469727,19742
2019-10-11 00:00:00+05:30,14.350000381469727,15.050000190734863,14.25,14.649999618530273,14.649999618530273,5587
2019-10-14 00:00:00+05:30,14.949999809265137,15.199999809265137,14.199999809265137,14.449999809265137,14.449999809265137,8241
2019-10-15 00:00:00+05:30,14.850000381469727,16.799999237060547,14.5,15.800000190734863,15.800000190734863,24916
2019-10-16 00:00:00+05:30,15.449999809265137,17.450000762939453,15.449999809265137,17.200000762939453,17.200000762939453,49055
2019-10-17 00:00:00+05:30,17.0,17.200000762939453,15.75,17.0,17.0,11615
2019-10-18 00:00:00+05:30,16.899999618530273,17.399999618530273,16.25,16.950000762939453,16.950000762939453,3958
2019-10-22 00:00:00+05:30,16.899999618530273,17.0,16.200000762939453,16.799999237060547,16.799999237060547,212836
2019-10-23 00:00:00+05:30,16.75,17.049999237060547,16.399999618530273,16.850000381469727,16.850000381469727,8983
2019-10-24 00:00:00+05:30,16.649999618530273,17.0,16.450000762939453,17.0,17.0,1676
2019-10-25 00:00:00+05:30,16.950000762939453,16.950000762939453,15.800000190734863,16.299999237060547,16.299999237060547,4102
2019-10-27 00:00:00+05:30,16.75,17.299999237060547,15.899999618530273,17.100000381469727,17.100000381469727,2829
2019-10-29 00:00:00+05:30,16.899999618530273,17.0,16.149999618530273,16.350000381469727,16.350000381469727,9891
2019-10-30 00:00:00+05:30,16.200000762939453,16.600000381469727,15.5,15.600000381469727,15.600000381469727,12215
2019-10-31 00:00:00+05:30,16.450000762939453,17.950000762939453,15.5,16.399999618530273,16.399999618530273,115137
2019-11-01 00:00:00+05:30,16.100000381469727,17.600000381469727,15.800000190734863,16.100000381469727,16.100000381469727,20003
2019-11-04 00:00:00+05:30,16.049999237060547,16.799999237060547,15.100000381469727,15.550000190734863,15.550000190734863,29286
2019-11-05 00:00:00+05:30,15.800000190734863,16.0,15.300000190734863,15.850000381469727,15.850000381469727,18126
2019-11-06 00:00:00+05:30,15.649999618530273,16.25,15.5,15.5,15.5,21258
2019-11-07 00:00:00+05:30,15.449999809265137,15.949999809265137,15.449999809265137,15.649999618530273,15.649999618530273,13884
2019-11-08 00:00:00+05:30,15.850000381469727,15.850000381469727,15.199999809265137,15.5,15.5,2864
2019-11-11 00:00:00+05:30,15.649999618530273,15.75,15.149999618530273,15.350000381469727,15.350000381469727,3997
2019-11-13 00:00:00+05:30,15.649999618530273,15.649999618530273,15.050000190734863,15.100000381469727,15.100000381469727,2326
2019-11-14 00:00:00+05:30,14.949999809265137,15.649999618530273,14.800000190734863,15.0,15.0,14781
2019-11-15 00:00:00+05:30,15.199999809265137,15.199999809265137,14.949999809265137,15.050000190734863,15.050000190734863,4286
2019-11-18 00:00:00+05:30,15.0,15.050000190734863,14.550000190734863,14.699999809265137,14.699999809265137,6621
2019-11-19 00:00:00+05:30,14.800000190734863,15.100000381469727,14.550000190734863,14.800000190734863,14.800000190734863,2131
2019-11-20 00:00:00+05:30,14.800000190734863,15.0,14.300000190734863,14.899999618530273,14.899999618530273,5895
2019-11-21 00:00:00+05:30,14.899999618530273,14.899999618530273,14.550000190734863,14.649999618530273,14.649999618530273,1634
2019-11-22 00:00:00+05:30,14.649999618530273,14.899999618530273,14.0,14.199999809265137,14.199999809265137,13705
2019-11-25 00:00:00+05:30,13.949999809265137,14.800000190734863,13.949999809265137,14.25,14.25,10349
2019-11-26 00:00:00+05:30,14.25,14.699999809265137,14.25,14.399999618530273,14.399999618530273,5554
2019-11-27 00:00:00+05:30,14.800000190734863,14.800000190734863,14.149999618530273,14.199999809265137,14.199999809265137,19786
2019-11-28 00:00:00+05:30,14.300000190734863,14.649999618530273,14.25,14.300000190734863,14.300000190734863,10689
2019-11-29 00:00:00+05:30,14.5,14.850000381469727,14.149999618530273,14.300000190734863,14.300000190734863,15579
2019-12-02 00:00:00+05:30,14.25,15.25,14.100000381469727,14.399999618530273,14.399999618530273,12357
2019-12-03 00:00:00+05:30,14.5,14.5,14.050000190734863,14.100000381469727,14.100000381469727,4456
2019-12-04 00:00:00+05:30,14.100000381469727,14.449999809265137,14.0,14.25,14.25,7613
2019-12-05 00:00:00+05:30,14.25,14.399999618530273,14.100000381469727,14.199999809265137,14.199999809265137,1818
2019-12-06 00:00:00+05:30,14.149999618530273,14.649999618530273,13.899999618530273,13.949999809265137,13.949999809265137,69570
2019-12-09 00:00:00+05:30,14.199999809265137,14.399999618530273,13.850000381469727,13.949999809265137,13.949999809265137,10732
2019-12-10 00:00:00+05:30,13.800000190734863,14.100000381469727,13.449999809265137,13.5,13.5,7500
2019-12-11 00:00:00+05:30,13.350000381469727,13.399999618530273,13.100000381469727,13.149999618530273,13.149999618530273,8211
2019-12-12 00:00:00+05:30,13.5,13.75,13.199999809265137,13.300000190734863,13.300000190734863,10442
2019-12-13 00:00:00+05:30,13.949999809265137,13.949999809265137,13.25,13.449999809265137,13.449999809265137,7767
2019-12-16 00:00:00+05:30,13.350000381469727,13.649999618530273,13.149999618530273,13.399999618530273,13.399999618530273,7799
2019-12-17 00:00:00+05:30,13.600000381469727,15.100000381469727,13.600000381469727,14.199999809265137,14.199999809265137,112607
2019-12-18 00:00:00+05:30,14.899999618530273,14.899999618530273,13.550000190734863,14.0,14.0,19737
2019-12-19 00:00:00+05:30,13.949999809265137,14.25,13.550000190734863,14.0,14.0,20296
2019-12-20 00:00:00+05:30,14.0,14.449999809265137,13.600000381469727,13.649999618530273,13.649999618530273,6852
2019-12-23 00:00:00+05:30,14.5,14.5,13.300000190734863,13.600000381469727,13.600000381469727,13977
2019-12-24 00:00:00+05:30,14.0,14.800000190734863,12.649999618530273,13.199999809265137,13.199999809265137,109536
2019-12-26 00:00:00+05:30,13.149999618530273,13.199999809265137,12.899999618530273,13.149999618530273,13.149999618530273,56528
2019-12-27 00:00:00+05:30,13.100000381469727,14.350000381469727,13.050000190734863,13.949999809265137,13.949999809265137,98371
2019-12-30 00:00:00+05:30,14.100000381469727,14.199999809265137,13.350000381469727,13.850000381469727,13.850000381469727,11641
2019-12-31 00:00:00+05:30,13.800000190734863,14.600000381469727,13.699999809265137,14.350000381469727,14.350000381469727,5309
2020-01-01 00:00:00+05:30,14.100000381469727,14.600000381469727,13.600000381469727,13.800000190734863,13.800000190734863,15632
2020-01-02 00:00:00+05:30,14.0,15.399999618530273,14.0,14.949999809265137,14.949999809265137,27044
2020-01-03 00:00:00+05:30,14.949999809265137,14.949999809265137,14.449999809265137,14.699999809265137,14.699999809265137,12963
2020-01-06 00:00:00+05:30,14.699999809265137,14.699999809265137,14.300000190734863,14.600000381469727,14.600000381469727,11904
2020-01-07 00:00:00+05:30,14.699999809265137,14.800000190734863,14.5,14.550000190734863,14.550000190734863,10032
2020-01-08 00:00:00+05:30,14.550000190734863,15.300000190734863,14.100000381469727,14.899999618530273,14.899999618530273,5840
2020-01-09 00:00:00+05:30,15.25,15.25,14.399999618530273,14.5,14.5,12597
2020-01-10 00:00:00+05:30,14.399999618530273,15.600000381469727,14.399999618530273,14.699999809265137,14.699999809265137,26660
2020-01-13 00:00:00+05:30,14.600000381469727,15.5,14.600000381469727,14.75,14.75,13348
2020-01-14 00:00:00+05:30,14.800000190734863,15.649999618530273,14.75,15.199999809265137,15.199999809265137,16441
2020-01-15 00:00:00+05:30,15.0,16.399999618530273,15.0,15.300000190734863,15.300000190734863,45348
2020-01-16 00:00:00+05:30,15.25,15.850000381469727,15.149999618530273,15.350000381469727,15.350000381469727,13642
2020-01-17 00:00:00+05:30,15.300000190734863,17.200000762939453,15.300000190734863,16.299999237060547,16.299999237060547,71988
2020-01-20 00:00:00+05:30,16.299999237060547,16.350000381469727,15.350000381469727,15.550000190734863,15.550000190734863,20107
2020-01-21 00:00:00+05:30,15.350000381469727,15.949999809265137,15.300000190734863,15.800000190734863,15.800000190734863,12285
2020-01-22 00:00:00+05:30,16.350000381469727,16.350000381469727,15.600000381469727,15.850000381469727,15.850000381469727,24196
2020-01-23 00:00:00+05:30,15.800000190734863,16.049999237060547,15.449999809265137,15.550000190734863,15.550000190734863,14890
2020-01-24 00:00:00+05:30,15.300000190734863,16.200000762939453,15.25,16.0,16.0,35103
2020-01-27 00:00:00+05:30,15.899999618530273,15.899999618530273,15.350000381469727,15.449999809265137,15.449999809265137,10485
2020-01-28 00:00:00+05:30,15.449999809265137,15.600000381469727,15.0,15.5,15.5,17341
2020-01-29 00:00:00+05:30,15.100000381469727,15.899999618530273,14.699999809265137,14.949999809265137,14.949999809265137,24578
2020-01-30 00:00:00+05:30,14.850000381469727,15.5,14.300000190734863,14.550000190734863,14.550000190734863,23838
2020-01-31 00:00:00+05:30,14.550000190734863,14.899999618530273,14.100000381469727,14.350000381469727,14.350000381469727,21723
2020-02-03 00:00:00+05:30,13.649999618530273,14.899999618530273,13.300000190734863,13.600000381469727,13.600000381469727,6333
2020-02-04 00:00:00+05:30,13.550000190734863,14.899999618530273,13.550000190734863,14.649999618530273,14.649999618530273,15619
2020-02-05 00:00:00+05:30,14.899999618530273,14.899999618530273,14.100000381469727,14.449999809265137,14.449999809265137,5407
2020-02-06 00:00:00+05:30,14.350000381469727,15.25,14.350000381469727,14.649999618530273,14.649999618530273,14696
2020-02-07 00:00:00+05:30,14.550000190734863,14.949999809265137,14.5,14.550000190734863,14.550000190734863,4624
2020-02-10 00:00:00+05:30,14.449999809265137,15.850000381469727,14.449999809265137,14.5,14.5,4844
2020-02-11 00:00:00+05:30,14.449999809265137,14.949999809265137,14.0,14.149999618530273,14.149999618530273,5589
2020-02-12 00:00:00+05:30,14.199999809265137,14.399999618530273,13.550000190734863,13.649999618530273,13.649999618530273,14868
2020-02-13 00:00:00+05:30,13.449999809265137,14.25,13.449999809265137,13.649999618530273,13.649999618530273,9104
2020-02-14 00:00:00+05:30,13.699999809265137,14.25,13.25,13.449999809265137,13.449999809265137,24586
2020-02-17 00:00:00+05:30,13.550000190734863,14.0,13.5,13.600000381469727,13.600000381469727,4523
2020-02-18 00:00:00+05:30,14.0,14.0,13.300000190734863,13.75,13.75,20207
2020-02-19 00:00:00+05:30,13.399999618530273,14.25,13.350000381469727,13.899999618530273,13.899999618530273,19889
2020-02-20 00:00:00+05:30,14.300000190734863,15.5,14.300000190734863,14.449999809265137,14.449999809265137,11466
2020-02-24 00:00:00+05:30,14.100000381469727,14.800000190734863,13.600000381469727,14.0,14.0,6243
2020-02-25 00:00:00+05:30,13.949999809265137,14.199999809265137,13.300000190734863,13.399999618530273,13.399999618530273,7463
2020-02-26 00:00:00+05:30,13.300000190734863,14.25,13.300000190734863,13.949999809265137,13.949999809265137,6935
2020-02-27 00:00:00+05:30,13.899999618530273,14.800000190734863,13.300000190734863,14.25,14.25,4571
2020-02-28 00:00:00+05:30,14.0,14.050000190734863,12.899999618530273,13.649999618530273,13.649999618530273,6376
2020-03-02 00:00:00+05:30,13.5,13.699999809265137,12.300000190734863,12.699999809265137,12.699999809265137,26623
2020-03-03 00:00:00+05:30,12.800000190734863,13.25,12.550000190734863,12.699999809265137,12.699999809265137,15022
2020-03-04 00:00:00+05:30,12.100000381469727,13.25,12.100000381469727,12.5,12.5,6233
2020-03-05 00:00:00+05:30,12.5,13.0,12.449999809265137,12.550000190734863,12.550000190734863,7652
2020-03-06 00:00:00+05:30,12.5,13.199999809265137,11.75,13.050000190734863,13.050000190734863,42733
2020-03-09 00:00:00+05:30,13.050000190734863,13.050000190734863,12.25,12.699999809265137,12.699999809265137,17448
2020-03-11 00:00:00+05:30,12.199999809265137,12.949999809265137,12.100000381469727,12.75,12.75,57215
2020-03-12 00:00:00+05:30,12.149999618530273,13.5,11.5,12.100000381469727,12.100000381469727,75237
2020-03-13 00:00:00+05:30,10.649999618530273,13.899999618530273,10.0,11.550000190734863,11.550000190734863,41536
2020-03-16 00:00:00+05:30,12.300000190734863,12.850000381469727,10.550000190734863,12.050000190734863,12.050000190734863,34243
2020-03-17 00:00:00+05:30,10.800000190734863,12.449999809265137,10.800000190734863,11.5,11.5,11525
2020-03-18 00:00:00+05:30,11.550000190734863,11.649999618530273,11.0,11.100000381469727,11.100000381469727,16930
2020-03-19 00:00:00+05:30,10.949999809265137,12.0,10.300000190734863,11.899999618530273,11.899999618530273,17788
2020-03-20 00:00:00+05:30,12.050000190734863,12.800000190734863,11.399999618530273,12.199999809265137,12.199999809265137,7990
2020-03-23 00:00:00+05:30,11.699999809265137,11.699999809265137,9.800000190734863,10.25,10.25,44830
2020-03-24 00:00:00+05:30,10.199999809265137,11.350000381469727,10.0,10.199999809265137,10.199999809265137,32196
2020-03-25 00:00:00+05:30,10.25,10.899999618530273,9.800000190734863,10.199999809265137,10.199999809265137,5897
2020-03-26 00:00:00+05:30,10.449999809265137,11.699999809265137,10.300000190734863,11.5,11.5,11635
2020-03-27 00:00:00+05:30,11.649999618530273,11.899999618530273,10.199999809265137,11.149999618530273,11.149999618530273,17750
2020-03-30 00:00:00+05:30,10.899999618530273,10.949999809265137,10.25,10.550000190734863,10.550000190734863,8691
2020-03-31 00:00:00+05:30,10.600000381469727,11.899999618530273,10.449999809265137,11.5,11.5,11003
2020-04-01 00:00:00+05:30,11.449999809265137,11.600000381469727,11.350000381469727,11.5,11.5,5835
2020-04-03 00:00:00+05:30,11.050000190734863,11.899999618530273,10.5,10.949999809265137,10.949999809265137,35263
2020-04-07 00:00:00+05:30,11.25,12.800000190734863,11.149999618530273,12.649999618530273,12.649999618530273,27145
2020-04-08 00:00:00+05:30,12.699999809265137,15.149999618530273,12.699999809265137,14.949999809265137,14.949999809265137,70029
2020-04-09 00:00:00+05:30,16.0,16.450000762939453,13.75,14.449999809265137,14.449999809265137,97732
2020-04-13 00:00:00+05:30,15.5,15.5,13.0,13.699999809265137,13.699999809265137,52529
2020-04-15 00:00:00+05:30,13.649999618530273,13.75,13.399999618530273,13.449999809265137,13.449999809265137,15783
2020-04-16 00:00:00+05:30,13.5,13.75,12.600000381469727,13.649999618530273,13.649999618530273,28532
2020-04-17 00:00:00+05:30,13.75,14.0,13.300000190734863,13.699999809265137,13.699999809265137,11047
2020-04-20 00:00:00+05:30,13.949999809265137,14.050000190734863,13.050000190734863,13.300000190734863,13.300000190734863,17556
2020-04-21 00:00:00+05:30,13.199999809265137,13.600000381469727,12.75,12.949999809265137,12.949999809265137,19968
2020-04-22 00:00:00+05:30,12.75,12.75,12.149999618530273,12.5,12.5,26123
2020-04-23 00:00:00+05:30,12.5,13.350000381469727,12.5,13.0,13.0,21463
2020-04-24 00:00:00+05:30,12.699999809265137,13.699999809265137,12.350000381469727,12.649999618530273,12.649999618530273,25955
2020-04-27 00:00:00+05:30,12.350000381469727,13.199999809265137,12.350000381469727,12.600000381469727,12.600000381469727,22598
2020-04-28 00:00:00+05:30,12.850000381469727,13.0,12.449999809265137,12.649999618530273,12.649999618530273,32299
2020-04-29 00:00:00+05:30,12.5,12.850000381469727,12.5,12.550000190734863,12.550000190734863,4072
2020-04-30 00:00:00+05:30,12.800000190734863,12.800000190734863,12.449999809265137,12.699999809265137,12.699999809265137,13366
2020-05-04 00:00:00+05:30,12.5,12.949999809265137,12.25,12.899999618530273,12.899999618530273,17850
2020-05-05 00:00:00+05:30,12.800000190734863,12.850000381469727,12.350000381469727,12.449999809265137,12.449999809265137,7585
2020-05-06 00:00:00+05:30,12.899999618530273,12.899999618530273,12.5,12.5,12.5,7108
2020-05-07 00:00:00+05:30,12.5,13.399999618530273,12.199999809265137,12.449999809265137,12.449999809265137,20659
2020-05-08 00:00:00+05:30,12.300000190734863,12.899999618530273,11.949999809265137,12.399999618530273,12.399999618530273,43286
2020-05-11 00:00:00+05:30,12.350000381469727,12.800000190734863,12.050000190734863,12.449999809265137,12.449999809265137,9810
2020-05-12 00:00:00+05:30,12.0,12.399999618530273,11.800000190734863,12.199999809265137,12.199999809265137,19501
2020-05-13 00:00:00+05:30,12.649999618530273,12.649999618530273,12.100000381469727,12.149999618530273,12.149999618530273,46418
2020-05-14 00:00:00+05:30,12.0,12.399999618530273,12.0,12.149999618530273,12.149999618530273,22547
2020-05-15 00:00:00+05:30,12.600000381469727,12.600000381469727,11.699999809265137,12.0,12.0,45529
2020-05-18 00:00:00+05:30,11.899999618530273,12.25,11.600000381469727,12.050000190734863,12.050000190734863,16854
2020-05-19 00:00:00+05:30,12.0,12.199999809265137,11.600000381469727,11.649999618530273,11.649999618530273,5458
2020-05-20 00:00:00+05:30,11.600000381469727,12.100000381469727,11.0,11.699999809265137,11.699999809265137,17520
2020-05-21 00:00:00+05:30,11.699999809265137,12.0,11.600000381469727,11.949999809265137,11.949999809265137,9092
2020-05-22 00:00:00+05:30,11.899999618530273,12.399999618530273,11.399999618530273,11.899999618530273,11.899999618530273,11860
2020-05-26 00:00:00+05:30,12.399999618530273,12.399999618530273,11.649999618530273,12.149999618530273,12.149999618530273,8731
2020-05-27 00:00:00+05:30,12.199999809265137,12.350000381469727,11.699999809265137,12.350000381469727,12.350000381469727,4346
2020-05-28 00:00:00+05:30,12.649999618530273,12.649999618530273,11.75,11.899999618530273,11.899999618530273,25496
2020-05-29 00:00:00+05:30,12.149999618530273,12.649999618530273,10.350000381469727,11.649999618530273,11.649999618530273,86652
2020-06-01 00:00:00+05:30,11.300000190734863,12.25,11.300000190734863,12.100000381469727,12.100000381469727,32996
2020-06-02 00:00:00+05:30,12.0,12.5,11.850000381469727,12.100000381469727,12.100000381469727,10496
2020-06-03 00:00:00+05:30,12.199999809265137,12.5,11.75,11.800000190734863,11.800000190734863,67456
2020-06-04 00:00:00+05:30,11.800000190734863,12.0,11.75,11.949999809265137,11.949999809265137,16244
2020-06-05 00:00:00+05:30,11.899999618530273,12.300000190734863,11.850000381469727,12.25,12.25,22587
2020-06-08 00:00:00+05:30,12.25,12.800000190734863,11.800000190734863,12.0,12.0,54257
2020-06-09 00:00:00+05:30,12.100000381469727,12.5,11.899999618530273,12.0,12.0,32751
2020-06-10 00:00:00+05:30,11.699999809265137,12.600000381469727,11.699999809265137,11.899999618530273,11.899999618530273,38093
2020-06-11 00:00:00+05:30,12.0,12.300000190734863,11.850000381469727,12.050000190734863,12.050000190734863,27301
2020-06-12 00:00:00+05:30,11.949999809265137,12.199999809265137,11.649999618530273,12.100000381469727,12.100000381469727,14103
2020-06-15 00:00:00+05:30,12.5,12.5,11.850000381469727,12.149999618530273,12.149999618530273,11819
2020-06-16 00:00:00+05:30,12.0,12.350000381469727,11.850000381469727,12.0,12.0,37117
2020-06-17 00:00:00+05:30,12.0,12.25,11.75,12.100000381469727,12.100000381469727,24616
2020-06-18 00:00:00+05:30,12.300000190734863,12.75,11.75,12.649999618530273,12.649999618530273,84793
2020-06-19 00:00:00+05:30,12.75,14.850000381469727,12.600000381469727,14.0,14.0,187172
2020-06-22 00:00:00+05:30,14.149999618530273,15.25,13.899999618530273,14.25,14.25,106210
2020-06-23 00:00:00+05:30,14.300000190734863,15.199999809265137,14.050000190734863,14.649999618530273,14.649999618530273,65998
2020-06-24 00:00:00+05:30,14.649999618530273,16.450000762939453,14.399999618530273,15.899999618530273,15.899999618530273,287798
2020-06-25 00:00:00+05:30,15.800000190734863,16.700000762939453,15.199999809265137,15.449999809265137,15.449999809265137,186645
2020-06-26 00:00:00+05:30,15.399999618530273,16.350000381469727,14.800000190734863,14.949999809265137,14.949999809265137,76359
2020-06-29 00:00:00+05:30,15.0,16.399999618530273,14.550000190734863,16.149999618530273,16.149999618530273,143175
2020-06-30 00:00:00+05:30,16.799999237060547,17.5,15.699999809265137,16.100000381469727,16.100000381469727,343219
2020-07-01 00:00:00+05:30,16.100000381469727,16.75,15.300000190734863,16.0,16.0,80617
2020-07-02 00:00:00+05:30,16.0,16.799999237060547,16.0,16.149999618530273,16.149999618530273,90335
2020-07-03 00:00:00+05:30,16.149999618530273,16.799999237060547,15.399999618530273,15.5,15.5,73683
2020-07-06 00:00:00+05:30,15.5,16.0,15.25,15.600000381469727,15.600000381469727,73367
2020-07-07 00:00:00+05:30,15.949999809265137,15.949999809265137,14.850000381469727,15.399999618530273,15.399999618530273,70256
2020-07-08 00:00:00+05:30,15.399999618530273,15.850000381469727,14.899999618530273,15.100000381469727,15.100000381469727,619056
2020-07-09 00:00:00+05:30,15.75,16.200000762939453,15.050000190734863,15.199999809265137,15.199999809265137,89796
2020-07-10 00:00:00+05:30,15.25,15.600000381469727,14.550000190734863,14.949999809265137,14.949999809265137,75112
2020-07-13 00:00:00+05:30,15.449999809265137,15.449999809265137,15.0,15.050000190734863,15.050000190734863,8817
2020-07-14 00:00:00+05:30,15.300000190734863,15.300000190734863,14.649999618530273,14.800000190734863,14.800000190734863,11853
2020-07-15 00:00:00+05:30,15.25,15.399999618530273,14.600000381469727,14.850000381469727,14.850000381469727,43733
2020-07-16 00:00:00+05:30,14.850000381469727,15.100000381469727,13.800000190734863,14.199999809265137,14.199999809265137,89273
2020-07-17 00:00:00+05:30,14.449999809265137,14.699999809265137,14.199999809265137,14.350000381469727,14.350000381469727,8625
2020-07-20 00:00:00+05:30,14.600000381469727,14.899999618530273,14.5,14.550000190734863,14.550000190734863,12397
2020-07-21 00:00:00+05:30,14.350000381469727,15.100000381469727,14.199999809265137,14.25,14.25,39987
2020-07-22 00:00:00+05:30,14.850000381469727,14.850000381469727,14.149999618530273,14.449999809265137,14.449999809265137,34501
2020-07-23 00:00:00+05:30,14.449999809265137,17.299999237060547,14.350000381469727,17.25,17.25,656021
2020-07-24 00:00:00+05:30,16.75,16.850000381469727,15.649999618530273,16.100000381469727,16.100000381469727,379338
2020-07-27 00:00:00+05:30,16.399999618530273,16.899999618530273,15.850000381469727,16.100000381469727,16.100000381469727,100669
2020-07-28 00:00:00+05:30,16.649999618530273,16.649999618530273,15.800000190734863,15.899999618530273,15.899999618530273,36970
2020-07-29 00:00:00+05:30,15.800000190734863,17.299999237060547,15.5,16.450000762939453,16.450000762939453,430685
2020-07-30 00:00:00+05:30,16.950000762939453,17.0,15.699999809265137,16.0,16.0,141498
2020-07-31 00:00:00+05:30,16.25,16.950000762939453,16.0,16.600000381469727,16.600000381469727,114456
2020-08-03 00:00:00+05:30,16.600000381469727,16.600000381469727,15.600000381469727,16.0,16.0,85992
2020-08-04 00:00:00+05:30,15.949999809265137,16.700000762939453,15.850000381469727,16.149999618530273,16.149999618530273,40458
2020-08-05 00:00:00+05:30,16.25,16.549999237060547,16.049999237060547,16.149999618530273,16.149999618530273,43094
2020-08-06 00:00:00+05:30,16.0,16.549999237060547,16.0,16.149999618530273,16.149999618530273,32587
2020-08-07 00:00:00+05:30,16.149999618530273,16.25,15.850000381469727,16.100000381469727,16.100000381469727,20262
2020-08-10 00:00:00+05:30,16.5,16.5,15.75,15.899999618530273,15.899999618530273,54890
2020-08-11 00:00:00+05:30,16.100000381469727,16.100000381469727,15.600000381469727,15.75,15.75,41785
2020-08-12 00:00:00+05:30,15.75,16.0,15.649999618530273,15.899999618530273,15.899999618530273,54414
2020-08-13 00:00:00+05:30,16.0,16.100000381469727,15.649999618530273,15.75,15.75,44439
2020-08-14 00:00:00+05:30,15.949999809265137,16.950000762939453,15.75,15.899999618530273,15.899999618530273,256601
2020-08-17 00:00:00+05:30,15.899999618530273,16.25,15.5,15.850000381469727,15.850000381469727,76805
2020-08-18 00:00:00+05:30,15.899999618530273,16.299999237060547,15.600000381469727,15.899999618530273,15.899999618530273,78455
2020-08-19 00:00:00+05:30,15.899999618530273,16.299999237060547,15.75,15.850000381469727,15.850000381469727,39484
2020-08-20 00:00:00+05:30,15.899999618530273,15.899999618530273,15.5,15.550000190734863,15.550000190734863,58426
2020-08-21 00:00:00+05:30,15.800000190734863,16.200000762939453,15.550000190734863,15.600000381469727,15.600000381469727,44847
2020-08-24 00:00:00+05:30,15.5,15.899999618530273,15.050000190734863,15.399999618530273,15.399999618530273,91831
2020-08-25 00:00:00+05:30,15.699999809265137,15.699999809265137,15.149999618530273,15.199999809265137,15.199999809265137,49434
2020-08-26 00:00:00+05:30,15.449999809265137,15.5,14.800000190734863,15.25,15.25,92167
2020-08-27 00:00:00+05:30,15.5,15.5,15.100000381469727,15.199999809265137,15.199999809265137,21923
2020-08-28 00:00:00+05:30,15.649999618530273,15.649999618530273,15.149999618530273,15.199999809265137,15.199999809265137,62014
2020-08-31 00:00:00+05:30,15.449999809265137,15.449999809265137,14.199999809265137,14.449999809265137,14.449999809265137,89251
2020-09-01 00:00:00+05:30,14.0,15.399999618530273,13.75,14.649999618530273,14.649999618530273,51471
2020-09-02 00:00:00+05:30,15.399999618530273,15.399999618530273,14.100000381469727,14.449999809265137,14.449999809265137,25442
2020-09-03 00:00:00+05:30,14.75,14.75,14.100000381469727,14.25,14.25,21715
2020-09-04 00:00:00+05:30,14.0,14.899999618530273,13.75,13.899999618530273,13.899999618530273,40260
2020-09-07 00:00:00+05:30,13.850000381469727,14.149999618530273,13.75,13.899999618530273,13.899999618530273,10486
2020-09-08 00:00:00+05:30,14.0,14.5,13.699999809265137,14.0,14.0,40774
2020-09-09 00:00:00+05:30,13.850000381469727,14.050000190734863,13.300000190734863,13.949999809265137,13.949999809265137,15592
2020-09-10 00:00:00+05:30,13.850000381469727,14.350000381469727,13.699999809265137,14.100000381469727,14.100000381469727,7136
2020-09-11 00:00:00+05:30,14.300000190734863,14.300000190734863,13.850000381469727,13.949999809265137,13.949999809265137,15990
2020-09-14 00:00:00+05:30,13.949999809265137,14.25,13.800000190734863,13.850000381469727,13.850000381469727,20111
2020-09-15 00:00:00+05:30,13.850000381469727,13.949999809265137,13.199999809265137,13.449999809265137,13.449999809265137,36804
2020-09-16 00:00:00+05:30,13.75,15.949999809265137,13.550000190734863,14.75,14.75,447286
2020-09-17 00:00:00+05:30,15.199999809265137,15.199999809265137,14.0,14.300000190734863,14.300000190734863,79276
2020-09-18 00:00:00+05:30,14.25,15.149999618530273,14.100000381469727,14.300000190734863,14.300000190734863,51298
2020-09-21 00:00:00+05:30,14.149999618530273,15.199999809265137,13.800000190734863,14.100000381469727,14.100000381469727,52266
2020-09-22 00:00:00+05:30,13.949999809265137,14.149999618530273,13.600000381469727,13.949999809265137,13.949999809265137,50193
2020-09-23 00:00:00+05:30,13.649999618530273,14.449999809265137,13.649999618530273,13.850000381469727,13.850000381469727,25868
2020-09-24 00:00:00+05:30,14.649999618530273,14.649999618530273,13.0,13.550000190734863,13.550000190734863,57830
2020-09-25 00:00:00+05:30,13.75,14.399999618530273,13.550000190734863,13.949999809265137,13.949999809265137,11431
2020-09-28 00:00:00+05:30,14.699999809265137,14.699999809265137,13.75,13.800000190734863,13.800000190734863,10411
2020-09-29 00:00:00+05:30,14.300000190734863,14.350000381469727,13.550000190734863,13.699999809265137,13.699999809265137,22453
2020-09-30 00:00:00+05:30,13.75,13.850000381469727,13.550000190734863,13.600000381469727,13.600000381469727,26867
2020-10-01 00:00:00+05:30,13.850000381469727,14.0,13.0,13.199999809265137,13.199999809265137,71322
2020-10-05 00:00:00+05:30,13.699999809265137,13.699999809265137,13.199999809265137,13.25,13.25,17103
2020-10-06 00:00:00+05:30,13.5,13.699999809265137,13.199999809265137,13.5,13.5,27013
2020-10-07 00:00:00+05:30,13.5,13.75,13.199999809265137,13.300000190734863,13.300000190734863,9635
2020-10-08 00:00:00+05:30,13.449999809265137,14.0,13.100000381469727,13.300000190734863,13.300000190734863,89901
2020-10-09 00:00:00+05:30,13.350000381469727,13.600000381469727,13.25,13.399999618530273,13.399999618530273,4464
2020-10-12 00:00:00+05:30,13.300000190734863,13.350000381469727,13.199999809265137,13.25,13.25,7832
2020-10-13 00:00:00+05:30,13.25,13.449999809265137,13.100000381469727,13.199999809265137,13.199999809265137,5120
2020-10-14 00:00:00+05:30,13.050000190734863,13.050000190734863,12.350000381469727,12.75,12.75,30156
2020-10-15 00:00:00+05:30,13.449999809265137,13.449999809265137,12.75,12.850000381469727,12.850000381469727,17277
2020-10-16 00:00:00+05:30,13.25,13.25,12.550000190734863,12.899999618530273,12.899999618530273,9558
2020-10-19 00:00:00+05:30,12.850000381469727,13.449999809265137,12.699999809265137,12.850000381469727,12.850000381469727,6722
2020-10-20 00:00:00+05:30,13.449999809265137,13.5,12.899999618530273,13.0,13.0,8793
2020-10-21 00:00:00+05:30,12.949999809265137,13.300000190734863,12.649999618530273,12.949999809265137,12.949999809265137,22032
2020-10-22 00:00:00+05:30,13.050000190734863,13.25,12.699999809265137,12.800000190734863,12.800000190734863,16643
2020-10-23 00:00:00+05:30,13.0,13.149999618530273,12.899999618530273,12.899999618530273,12.899999618530273,14122
2020-10-26 00:00:00+05:30,13.100000381469727,13.300000190734863,12.850000381469727,13.0,13.0,17681
2020-10-27 00:00:00+05:30,12.899999618530273,13.199999809265137,12.600000381469727,12.699999809265137,12.699999809265137,7123
2020-10-28 00:00:00+05:30,12.699999809265137,12.899999618530273,12.5,12.699999809265137,12.699999809265137,16917
2020-10-29 00:00:00+05:30,12.600000381469727,12.850000381469727,12.5,12.600000381469727,12.600000381469727,6636
2020-10-30 00:00:00+05:30,12.600000381469727,12.949999809265137,12.399999618530273,12.649999618530273,12.649999618530273,4283
2020-11-02 00:00:00+05:30,12.75,12.800000190734863,12.399999618530273,12.600000381469727,12.600000381469727,39026
2020-11-03 00:00:00+05:30,12.550000190734863,12.800000190734863,12.399999618530273,12.399999618530273,12.399999618530273,30772
2020-11-04 00:00:00+05:30,12.449999809265137,12.800000190734863,12.25,12.399999618530273,12.399999618530273,21037
2020-11-05 00:00:00+05:30,12.399999618530273,12.699999809265137,12.399999618530273,12.649999618530273,12.649999618530273,8798
2020-11-06 00:00:00+05:30,12.949999809265137,13.100000381469727,12.5,12.699999809265137,12.699999809265137,23496
2020-11-09 00:00:00+05:30,12.800000190734863,12.800000190734863,12.199999809265137,12.300000190734863,12.300000190734863,91644
2020-11-10 00:00:00+05:30,12.25,12.600000381469727,12.149999618530273,12.5,12.5,43198
2020-11-11 00:00:00+05:30,12.850000381469727,12.850000381469727,12.300000190734863,12.5,12.5,4462
2020-11-12 00:00:00+05:30,12.399999618530273,12.75,12.399999618530273,12.5,12.5,11972
2020-11-13 00:00:00+05:30,12.649999618530273,12.800000190734863,12.5,12.600000381469727,12.600000381469727,17427
2020-11-14 00:00:00+05:30,13.0,13.0,12.350000381469727,12.600000381469727,12.600000381469727,4818
2020-11-17 00:00:00+05:30,12.550000190734863,12.75,12.399999618530273,12.550000190734863,12.550000190734863,33284
2020-11-18 00:00:00+05:30,12.550000190734863,13.050000190734863,12.5,12.649999618530273,12.649999618530273,56285
2020-11-19 00:00:00+05:30,12.649999618530273,13.800000190734863,12.399999618530273,12.800000190734863,12.800000190734863,136391
2020-11-20 00:00:00+05:30,13.300000190734863,13.800000190734863,13.050000190734863,13.550000190734863,13.550000190734863,141187
2020-11-23 00:00:00+05:30,13.399999618530273,14.050000190734863,13.100000381469727,13.699999809265137,13.699999809265137,61063
2020-11-24 00:00:00+05:30,13.5,13.899999618530273,13.100000381469727,13.300000190734863,13.300000190734863,26757
2020-11-25 00:00:00+05:30,13.350000381469727,13.800000190734863,13.149999618530273,13.199999809265137,13.199999809265137,24284
2020-11-26 00:00:00+05:30,13.600000381469727,13.600000381469727,13.050000190734863,13.199999809265137,13.199999809265137,13037
2020-11-27 00:00:00+05:30,13.100000381469727,13.649999618530273,13.050000190734863,13.350000381469727,13.350000381469727,44715
2020-12-01 00:00:00+05:30,13.149999618530273,15.199999809265137,13.149999618530273,14.25,14.25,182281
2020-12-02 00:00:00+05:30,14.800000190734863,15.300000190734863,14.149999618530273,14.350000381469727,14.350000381469727,82176
2020-12-03 00:00:00+05:30,14.399999618530273,15.100000381469727,14.399999618530273,14.649999618530273,14.649999618530273,87649
2020-12-04 00:00:00+05:30,14.850000381469727,14.899999618530273,13.949999809265137,14.050000190734863,14.050000190734863,70341
2020-12-07 00:00:00+05:30,14.800000190734863,15.199999809265137,14.149999618530273,14.75,14.75,91328
2020-12-08 00:00:00+05:30,14.899999618530273,15.0,14.199999809265137,14.699999809265137,14.699999809265137,116430
2020-12-09 00:00:00+05:30,14.600000381469727,15.0,14.600000381469727,14.800000190734863,14.800000190734863,52920
2020-12-10 00:00:00+05:30,14.550000190734863,14.699999809265137,14.0,14.25,14.25,46625
2020-12-11 00:00:00+05:30,14.350000381469727,14.800000190734863,14.25,14.449999809265137,14.449999809265137,56254
2020-12-14 00:00:00+05:30,14.850000381469727,14.850000381469727,14.199999809265137,14.5,14.5,59126
2020-12-15 00:00:00+05:30,14.449999809265137,14.699999809265137,14.300000190734863,14.350000381469727,14.350000381469727,29348
2020-12-16 00:00:00+05:30,14.699999809265137,14.699999809265137,14.350000381469727,14.5,14.5,24124
2020-12-17 00:00:00+05:30,14.699999809265137,16.950000762939453,14.350000381469727,16.0,16.0,567030
2020-12-18 00:00:00+05:30,16.200000762939453,16.200000762939453,15.0,15.649999618530273,15.649999618530273,171607
2020-12-21 00:00:00+05:30,15.949999809265137,16.5,15.050000190734863,15.25,15.25,201681
2020-12-22 00:00:00+05:30,14.800000190734863,15.399999618530273,14.100000381469727,15.25,15.25,97908
2020-12-23 00:00:00+05:30,15.050000190734863,15.550000190734863,15.0,15.350000381469727,15.350000381469727,46966
2020-12-24 00:00:00+05:30,15.300000190734863,16.5,15.050000190734863,15.649999618530273,15.649999618530273,246475
2020-12-28 00:00:00+05:30,15.5,16.049999237060547,15.25,15.600000381469727,15.600000381469727,130099
2020-12-29 00:00:00+05:30,15.600000381469727,15.899999618530273,15.0,15.199999809265137,15.199999809265137,80068
2020-12-30 00:00:00+05:30,15.399999618530273,15.899999618530273,15.199999809265137,15.350000381469727,15.350000381469727,61674
2020-12-31 00:00:00+05:30,15.350000381469727,17.25,15.350000381469727,16.299999237060547,16.299999237060547,315306
2021-01-01 00:00:00+05:30,16.75,16.75,16.100000381469727,16.200000762939453,16.200000762939453,93943
2021-01-04 00:00:00+05:30,16.700000762939453,16.700000762939453,16.049999237060547,16.200000762939453,16.200000762939453,115944
2021-01-05 00:00:00+05:30,16.149999618530273,16.350000381469727,15.649999618530273,15.949999809265137,15.949999809265137,104986
2021-01-06 00:00:00+05:30,15.800000190734863,16.100000381469727,15.399999618530273,15.550000190734863,15.550000190734863,94116
2021-01-07 00:00:00+05:30,15.899999618530273,16.100000381469727,15.5,15.75,15.75,96367
2021-01-08 00:00:00+05:30,15.75,16.299999237060547,15.5,15.600000381469727,15.600000381469727,138530
2021-01-11 00:00:00+05:30,15.5,15.699999809265137,14.800000190734863,14.899999618530273,14.899999618530273,111669
2021-01-12 00:00:00+05:30,15.199999809265137,15.199999809265137,14.800000190734863,14.899999618530273,14.899999618530273,71318
2021-01-13 00:00:00+05:30,15.399999618530273,15.399999618530273,14.199999809265137,14.699999809265137,14.699999809265137,121219
2021-01-14 00:00:00+05:30,14.699999809265137,15.149999618530273,14.699999809265137,15.100000381469727,15.100000381469727,63546
2021-01-15 00:00:00+05:30,15.149999618530273,16.700000762939453,14.800000190734863,15.699999809265137,15.699999809265137,480270
2021-01-18 00:00:00+05:30,16.0,16.100000381469727,15.100000381469727,15.350000381469727,15.350000381469727,53371
2021-01-19 00:00:00+05:30,15.25,15.600000381469727,15.149999618530273,15.25,15.25,60774
2021-01-20 00:00:00+05:30,15.600000381469727,16.5,15.600000381469727,15.800000190734863,15.800000190734863,411732
2021-01-21 00:00:00+05:30,15.949999809265137,16.0,15.199999809265137,15.300000190734863,15.300000190734863,63320
2021-01-22 00:00:00+05:30,15.199999809265137,15.5,14.5,14.649999618530273,14.649999618530273,144244
2021-01-25 00:00:00+05:30,14.75,14.949999809265137,14.5,14.800000190734863,14.800000190734863,58550
2021-01-27 00:00:00+05:30,14.800000190734863,14.899999618530273,14.649999618530273,14.699999809265137,14.699999809265137,22300
2021-01-28 00:00:00+05:30,14.5,14.800000190734863,14.399999618530273,14.550000190734863,14.550000190734863,22562
2021-01-29 00:00:00+05:30,14.800000190734863,15.100000381469727,14.649999618530273,14.75,14.75,21999
2021-02-01 00:00:00+05:30,15.0,15.0,14.5,14.550000190734863,14.550000190734863,39939
2021-02-02 00:00:00+05:30,14.800000190734863,14.899999618530273,14.5,14.699999809265137,14.699999809265137,59454
2021-02-03 00:00:00+05:30,14.850000381469727,14.850000381469727,14.5,14.550000190734863,14.550000190734863,30519
2021-02-04 00:00:00+05:30,14.699999809265137,15.449999809265137,14.5,15.100000381469727,15.100000381469727,100591
2021-02-05 00:00:00+05:30,15.100000381469727,15.300000190734863,14.649999618530273,14.75,14.75,61889
2021-02-08 00:00:00+05:30,14.449999809265137,15.0,14.449999809265137,14.649999618530273,14.649999618530273,28119
2021-02-09 00:00:00+05:30,14.600000381469727,14.800000190734863,14.5,14.550000190734863,14.550000190734863,22231
2021-02-10 00:00:00+05:30,14.449999809265137,14.699999809265137,14.300000190734863,14.449999809265137,14.449999809265137,50122
2021-02-11 00:00:00+05:30,14.649999618530273,14.75,14.449999809265137,14.550000190734863,14.550000190734863,32464
2021-02-12 00:00:00+05:30,14.5,14.699999809265137,14.300000190734863,14.350000381469727,14.350000381469727,32239
2021-02-15 00:00:00+05:30,14.5,14.5,14.300000190734863,14.300000190734863,14.300000190734863,26228
2021-02-16 00:00:00+05:30,14.300000190734863,14.550000190734863,14.149999618530273,14.449999809265137,14.449999809265137,29599
2021-02-17 00:00:00+05:30,14.699999809265137,14.699999809265137,14.25,14.350000381469727,14.350000381469727,26261
2021-02-18 00:00:00+05:30,14.350000381469727,14.5,14.100000381469727,14.199999809265137,14.199999809265137,97704
2021-02-19 00:00:00+05:30,14.199999809265137,14.75,14.100000381469727,14.199999809265137,14.199999809265137,80112
2021-02-22 00:00:00+05:30,14.5,14.5,13.949999809265137,14.0,14.0,19307
2021-02-23 00:00:00+05:30,14.050000190734863,14.199999809265137,13.899999618530273,13.949999809265137,13.949999809265137,16486
2021-02-24 00:00:00+05:30,14.0,15.399999618530273,14.0,14.699999809265137,14.699999809265137,60359
2021-02-25 00:00:00+05:30,15.149999618530273,15.149999618530273,14.350000381469727,14.5,14.5,37482
2021-02-26 00:00:00+05:30,14.399999618530273,14.649999618530273,14.199999809265137,14.449999809265137,14.449999809265137,22206
2021-03-01 00:00:00+05:30,14.600000381469727,14.649999618530273,14.300000190734863,14.550000190734863,14.550000190734863,20399
2021-03-02 00:00:00+05:30,14.649999618530273,15.649999618530273,14.199999809265137,15.25,15.25,386633
2021-03-03 00:00:00+05:30,15.449999809265137,18.299999237060547,15.300000190734863,16.549999237060547,16.549999237060547,1214317
2021-03-04 00:00:00+05:30,16.450000762939453,16.450000762939453,15.800000190734863,15.949999809265137,15.949999809265137,138633
2021-03-05 00:00:00+05:30,16.299999237060547,17.299999237060547,15.800000190734863,16.850000381469727,16.850000381469727,536112
2021-03-08 00:00:00+05:30,17.399999618530273,17.5,16.850000381469727,17.0,17.0,189653
2021-03-09 00:00:00+05:30,17.25,20.399999618530273,16.899999618530273,18.649999618530273,18.649999618530273,2191211
2021-03-10 00:00:00+05:30,18.600000381469727,19.549999237060547,17.649999618530273,18.149999618530273,18.149999618530273,444483
2021-03-12 00:00:00+05:30,18.799999237060547,19.0,16.850000381469727,17.200000762939453,17.200000762939453,259999
2021-03-15 00:00:00+05:30,17.5,17.75,16.450000762939453,16.950000762939453,16.950000762939453,179028
2021-03-16 00:00:00+05:30,17.299999237060547,17.75,16.5,16.75,16.75,190648
2021-03-17 00:00:00+05:30,16.75,17.0,16.299999237060547,16.350000381469727,16.350000381469727,77807
2021-03-18 00:00:00+05:30,16.450000762939453,16.700000762939453,15.550000190734863,15.949999809265137,15.949999809265137,89227
2021-03-19 00:00:00+05:30,15.25,16.5,15.100000381469727,16.049999237060547,16.049999237060547,67633
2021-03-22 00:00:00+05:30,16.049999237060547,16.049999237060547,15.550000190734863,15.800000190734863,15.800000190734863,42246
2021-03-23 00:00:00+05:30,16.299999237060547,16.899999618530273,15.75,15.949999809265137,15.949999809265137,58402
2021-03-24 00:00:00+05:30,15.949999809265137,16.200000762939453,15.100000381469727,15.300000190734863,15.300000190734863,60850
2021-03-25 00:00:00+05:30,15.300000190734863,18.0,15.050000190734863,16.049999237060547,16.049999237060547,329795
2021-03-26 00:00:00+05:30,16.200000762939453,16.75,15.449999809265137,15.949999809265137,15.949999809265137,71544
2021-03-30 00:00:00+05:30,15.949999809265137,17.149999618530273,15.949999809265137,16.899999618530273,16.899999618530273,84866
2021-03-31 00:00:00+05:30,16.899999618530273,17.350000381469727,16.450000762939453,16.649999618530273,16.649999618530273,38728
2021-04-01 00:00:00+05:30,16.649999618530273,17.299999237060547,16.549999237060547,16.799999237060547,16.799999237060547,40181
2021-04-05 00:00:00+05:30,16.950000762939453,16.950000762939453,15.649999618530273,16.200000762939453,16.200000762939453,55998
2021-04-06 00:00:00+05:30,16.049999237060547,16.5,15.949999809265137,16.0,16.0,19961
2021-04-07 00:00:00+05:30,16.049999237060547,16.5,15.850000381469727,15.899999618530273,15.899999618530273,52415
2021-04-08 00:00:00+05:30,15.949999809265137,16.399999618530273,15.800000190734863,15.899999618530273,15.899999618530273,38100
2021-04-09 00:00:00+05:30,15.800000190734863,16.0,15.300000190734863,15.550000190734863,15.550000190734863,38733
2021-04-12 00:00:00+05:30,15.399999618530273,15.5,14.949999809265137,15.050000190734863,15.050000190734863,22291
2021-04-13 00:00:00+05:30,14.699999809265137,15.300000190734863,14.699999809265137,15.050000190734863,15.050000190734863,9147
2021-04-15 00:00:00+05:30,15.050000190734863,15.25,14.699999809265137,15.100000381469727,15.100000381469727,18046
2021-04-16 00:00:00+05:30,14.5,15.199999809265137,14.5,14.800000190734863,14.800000190734863,27869
2021-04-19 00:00:00+05:30,15.0,15.0,13.399999618530273,14.149999618530273,14.149999618530273,35709
2021-04-20 00:00:00+05:30,14.75,14.800000190734863,14.199999809265137,14.300000190734863,14.300000190734863,27952
2021-04-22 00:00:00+05:30,14.050000190734863,14.699999809265137,13.899999618530273,14.649999618530273,14.649999618530273,13143
2021-04-23 00:00:00+05:30,14.399999618530273,15.0,14.350000381469727,14.800000190734863,14.800000190734863,20434
2021-04-26 00:00:00+05:30,15.0,15.0,14.199999809265137,14.449999809265137,14.449999809265137,24882
2021-04-27 00:00:00+05:30,14.449999809265137,15.149999618530273,14.449999809265137,15.0,15.0,45483
2021-04-28 00:00:00+05:30,15.149999618530273,15.699999809265137,14.850000381469727,15.300000190734863,15.300000190734863,69101
2021-04-29 00:00:00+05:30,15.25,15.25,14.600000381469727,14.800000190734863,14.800000190734863,27097
2021-04-30 00:00:00+05:30,14.949999809265137,15.0,14.5,14.600000381469727,14.600000381469727,50391
2021-05-03 00:00:00+05:30,14.600000381469727,14.899999618530273,14.050000190734863,14.75,14.75,123538
2021-05-04 00:00:00+05:30,14.949999809265137,16.899999618530273,14.75,15.850000381469727,15.850000381469727,371444
2021-05-05 00:00:00+05:30,16.200000762939453,16.450000762939453,15.75,16.049999237060547,16.049999237060547,126650
2021-05-06 00:00:00+05:30,16.100000381469727,16.149999618530273,15.550000190734863,15.649999618530273,15.649999618530273,23711
2021-05-07 00:00:00+05:30,15.5,17.100000381469727,15.5,16.649999618530273,16.649999618530273,292774
2021-05-10 00:00:00+05:30,16.649999618530273,17.5,16.25,16.549999237060547,16.549999237060547,105895
2021-05-11 00:00:00+05:30,15.699999809265137,17.200000762939453,15.699999809265137,16.549999237060547,16.549999237060547,145793
2021-05-12 00:00:00+05:30,16.5,17.700000762939453,15.75,15.949999809265137,15.949999809265137,119349
2021-05-14 00:00:00+05:30,16.649999618530273,16.649999618530273,15.899999618530273,16.149999618530273,16.149999618530273,50514
2021-05-17 00:00:00+05:30,16.549999237060547,16.549999237060547,16.049999237060547,16.200000762939453,16.200000762939453,38260
2021-05-18 00:00:00+05:30,16.899999618530273,16.899999618530273,16.100000381469727,16.399999618530273,16.399999618530273,57873
2021-05-19 00:00:00+05:30,16.200000762939453,16.450000762939453,15.75,16.0,16.0,77659
2021-05-20 00:00:00+05:30,16.0,17.299999237060547,15.949999809265137,16.25,16.25,226472
2021-05-21 00:00:00+05:30,16.5,16.799999237060547,16.25,16.549999237060547,16.549999237060547,55262
2021-05-24 00:00:00+05:30,16.549999237060547,17.25,16.299999237060547,16.549999237060547,16.549999237060547,176966
2021-05-25 00:00:00+05:30,16.75,16.899999618530273,16.600000381469727,16.799999237060547,16.799999237060547,112700
2021-05-26 00:00:00+05:30,16.950000762939453,18.450000762939453,16.649999618530273,17.649999618530273,17.649999618530273,535100
2021-05-27 00:00:00+05:30,17.649999618530273,18.25,17.200000762939453,17.5,17.5,389462
2021-05-28 00:00:00+05:30,17.5,17.75,16.899999618530273,17.100000381469727,17.100000381469727,128007
2021-05-31 00:00:00+05:30,18.5,19.5,18.25,18.450000762939453,18.450000762939453,1462825
2021-06-01 00:00:00+05:30,18.5,18.700000762939453,17.549999237060547,17.850000381469727,17.850000381469727,202409
2021-06-02 00:00:00+05:30,17.600000381469727,19.700000762939453,17.600000381469727,18.850000381469727,18.850000381469727,415961
2021-06-03 00:00:00+05:30,19.0,19.450000762939453,18.399999618530273,18.75,18.75,193562
2021-06-04 00:00:00+05:30,18.5,19.0,18.200000762939453,18.350000381469727,18.350000381469727,193224
2021-06-07 00:00:00+05:30,18.350000381469727,18.799999237060547,18.200000762939453,18.25,18.25,128064
2021-06-08 00:00:00+05:30,18.299999237060547,18.600000381469727,18.0,18.299999237060547,18.299999237060547,134733
2021-06-09 00:00:00+05:30,18.350000381469727,19.600000381469727,18.049999237060547,18.299999237060547,18.299999237060547,852385
2021-06-10 00:00:00+05:30,18.5,19.5,18.25,18.799999237060547,18.799999237060547,285941
2021-06-11 00:00:00+05:30,19.0,20.450000762939453,18.799999237060547,19.950000762939453,19.950000762939453,1002964
2021-06-14 00:00:00+05:30,20.25,20.25,19.100000381469727,19.25,19.25,300963
2021-06-15 00:00:00+05:30,19.100000381469727,20.950000762939453,19.049999237060547,20.200000762939453,20.200000762939453,564861
2021-06-16 00:00:00+05:30,20.0,20.200000762939453,19.549999237060547,19.649999618530273,19.649999618530273,214188
2021-06-17 00:00:00+05:30,19.25,20.100000381469727,19.100000381469727,19.299999237060547,19.299999237060547,268341
2021-06-18 00:00:00+05:30,19.149999618530273,19.700000762939453,18.299999237060547,19.0,19.0,458599
2021-06-21 00:00:00+05:30,18.899999618530273,19.200000762939453,17.399999618530273,18.850000381469727,18.850000381469727,291268
2021-06-22 00:00:00+05:30,18.850000381469727,19.75,18.700000762939453,18.950000762939453,18.950000762939453,814927
2021-06-23 00:00:00+05:30,19.100000381469727,19.700000762939453,18.799999237060547,18.899999618530273,18.899999618530273,407643
2021-06-24 00:00:00+05:30,19.25,19.399999618530273,18.600000381469727,18.700000762939453,18.700000762939453,105779
2021-06-25 00:00:00+05:30,18.950000762939453,22.399999618530273,18.600000381469727,20.5,20.5,3176074
2021-06-28 00:00:00+05:30,20.700000762939453,21.200000762939453,19.75,20.0,20.0,484555
2021-06-29 00:00:00+05:30,20.049999237060547,20.25,19.600000381469727,19.700000762939453,19.700000762939453,137186
2021-06-30 00:00:00+05:30,20.149999618530273,20.700000762939453,19.75,20.549999237060547,20.549999237060547,344981
